time,value
0.000000000000000000e+00,-4.703196346888791624e-01
2.805049088359046422e-04,-4.703196346888791624e-01
5.610098176718092845e-04,-4.703196346888791624e-01
8.415147265077139267e-04,-4.703196346888791624e-01
1.122019635343618569e-03,-4.703196346888791624e-01
1.402524544179523103e-03,-4.703196346888791624e-01
1.683029453015427853e-03,-4.703196346888791624e-01
1.963534361851332604e-03,-4.703196346888791624e-01
2.244039270687237138e-03,-4.703196346888791624e-01
2.524544179523141672e-03,-4.703196346888791624e-01
2.805049088359046205e-03,-4.703196346888791624e-01
3.085553997194951173e-03,-4.703196346888791624e-01
3.366058906030855707e-03,-4.703196346888791624e-01
3.646563814866760241e-03,-4.703196346888791624e-01
3.927068723702665208e-03,-4.703196346888791624e-01
4.207573632538569308e-03,-4.703196346888791624e-01
4.488078541374474276e-03,-4.703196346888791624e-01
4.768583450210379243e-03,-4.703196346888791624e-01
5.049088359046283343e-03,-4.703196346888791624e-01
5.329593267882188311e-03,-4.703196346888791624e-01
5.610098176718092411e-03,-4.703196346888791624e-01
5.890603085553997378e-03,-4.703196346888791624e-01
6.171107994389902346e-03,-4.703196346888791624e-01
6.451612903225806446e-03,-4.703196346888791624e-01
6.732117812061711414e-03,-4.672754946585304103e-01
7.012622720897616381e-03,-4.642313546281816583e-01
7.293127629733520481e-03,-4.611872145978329618e-01
7.573632538569425449e-03,-4.611872145978329618e-01
7.854137447405330416e-03,-4.611872145978329618e-01
8.134642356241235384e-03,-4.611872145978329618e-01
8.415147265077138616e-03,-4.611872145978329618e-01
8.695652173913043584e-03,-4.611872145978329618e-01
8.976157082748948551e-03,-4.611872145978329618e-01
9.256661991584853519e-03,-4.611872145978329618e-01
9.537166900420758486e-03,-4.611872145978329618e-01
9.817671809256661719e-03,-4.611872145978329618e-01
1.009817671809256669e-02,-4.611872145978329618e-01
1.037868162692847165e-02,-4.611872145978329618e-01
1.065918653576437662e-02,-4.611872145978329618e-01
1.093969144460028159e-02,-4.611872145978329618e-01
1.122019635343618482e-02,-4.611872145978329618e-01
1.150070126227208979e-02,-4.611872145978329618e-01
1.178120617110799476e-02,-4.611872145978329618e-01
1.206171107994389972e-02,-4.611872145978329618e-01
1.234221598877980469e-02,-4.611872145978329618e-01
1.262272089761570966e-02,-4.611872145978329618e-01
1.290322580645161289e-02,-4.611872145978329618e-01
1.318373071528751786e-02,-4.611872145978329618e-01
1.346423562412342283e-02,-4.611872145978329618e-01
1.374474053295932779e-02,-4.611872145978329618e-01
1.402524544179523276e-02,-4.611872145978329618e-01
1.430575035063113599e-02,-4.611872145978329618e-01
1.458625525946704096e-02,-4.611872145978329618e-01
1.486676016830294593e-02,-4.611872145978329618e-01
1.514726507713885090e-02,-4.611872145978329618e-01
1.542776998597475586e-02,-4.611872145978329618e-01
1.570827489481066083e-02,-4.611872145978329618e-01
1.598877980364656406e-02,-4.611872145978329618e-01
1.626928471248247077e-02,-4.611872145978329618e-01
1.654978962131837400e-02,-4.611872145978329618e-01
1.683029453015427723e-02,-4.611872145978329618e-01
1.711079943899018393e-02,-4.611872145978329618e-01
1.739130434782608717e-02,-4.611872145978329618e-01
1.767180925666199387e-02,-4.611872145978329618e-01
1.795231416549789710e-02,-4.611872145978329618e-01
1.823281907433380034e-02,-4.611872145978329618e-01
1.851332398316970704e-02,-4.611872145978329618e-01
1.879382889200561027e-02,-4.611872145978329618e-01
1.907433380084151697e-02,-4.611872145978329618e-01
1.935483870967742021e-02,-4.611872145978329618e-01
1.963534361851332344e-02,-4.611872145978329618e-01
1.991584852734923014e-02,-4.611872145978329618e-01
2.019635343618513337e-02,-4.611872145978329618e-01
2.047685834502104008e-02,-4.611872145978329618e-01
2.075736325385694331e-02,-4.611872145978329618e-01
2.103786816269284654e-02,-4.611872145978329618e-01
2.131837307152875324e-02,-4.611872145978329618e-01
2.159887798036465648e-02,-4.611872145978329618e-01
2.187938288920056318e-02,-4.611872145978329618e-01
2.215988779803646641e-02,-4.611872145978329618e-01
2.244039270687236964e-02,-4.611872145978329618e-01
2.272089761570827635e-02,-4.611872145978329618e-01
2.300140252454417958e-02,-4.611872145978329618e-01
2.328190743338008628e-02,-4.611872145978329618e-01
2.356241234221598951e-02,-4.611872145978329618e-01
2.384291725105189622e-02,-4.611872145978329618e-01
2.412342215988779945e-02,-4.611872145978329618e-01
2.440392706872370268e-02,-4.611872145978329618e-01
2.468443197755960938e-02,-4.611872145978329618e-01
2.496493688639551262e-02,-4.611872145978329618e-01
2.524544179523141932e-02,-4.611872145978329618e-01
2.552594670406732255e-02,-4.611872145978329618e-01
2.580645161290322578e-02,-4.611872145978329618e-01
2.608695652173913249e-02,-4.611872145978329618e-01
2.636746143057503572e-02,-4.611872145978329618e-01
2.664796633941094242e-02,-4.611872145978329618e-01
2.692847124824684565e-02,-4.611872145978329618e-01
2.720897615708274889e-02,-4.611872145978329618e-01
2.748948106591865559e-02,-4.611872145978329618e-01
2.776998597475455882e-02,-4.611872145978329618e-01
2.805049088359046552e-02,-4.611872145978329618e-01
2.833099579242636876e-02,-4.581430745674842098e-01
2.861150070126227199e-02,-4.550989345371355133e-01
2.889200561009817869e-02,-4.520547945067867612e-01
2.917251051893408192e-02,-4.459665144460893127e-01
2.945301542776998863e-02,-4.429223744157405607e-01
2.973352033660589186e-02,-4.368340943550431121e-01
3.001402524544179509e-02,-4.307458142943456081e-01
3.029453015427770179e-02,-4.246575342336481595e-01
3.057503506311360503e-02,-4.216133942032994075e-01
3.085553997194951173e-02,-4.155251141426019590e-01
3.113604488078541496e-02,-4.094368340819045105e-01
3.141654978962132166e-02,-4.063926940515557584e-01
3.169705469845722490e-02,-4.033485540212070619e-01
3.197755960729312813e-02,-3.972602739605095579e-01
3.225806451612903136e-02,-3.911719938998121093e-01
3.253856942496494153e-02,-3.881278538694633573e-01
3.281907433380084477e-02,-3.820395738087659088e-01
3.309957924263674800e-02,-3.759512937480684602e-01
3.338008415147265123e-02,-3.729071537177197082e-01
3.366058906030855447e-02,-3.668188736570222597e-01
3.394109396914446464e-02,-3.637747336266735076e-01
3.422159887798036787e-02,-3.576864535659760591e-01
3.450210378681627110e-02,-3.515981735052786106e-01
3.478260869565217434e-02,-3.455098934445811065e-01
3.506311360448807757e-02,-3.424657534142324100e-01
3.534361851332398774e-02,-3.363774733535349060e-01
3.562412342215989097e-02,-3.333333333231862095e-01
3.590462833099579421e-02,-3.302891932928374574e-01
3.618513323983169744e-02,-3.272450532624887054e-01
3.646563814866760067e-02,-3.242009132321400089e-01
3.674614305750351084e-02,-3.211567732017912569e-01
3.702664796633941408e-02,-3.181126331714425048e-01
3.730715287517531731e-02,-3.181126331714425048e-01
3.758765778401122054e-02,-3.150684931410938083e-01
3.786816269284712377e-02,-3.150684931410938083e-01
3.814866760168303395e-02,-3.120243531107450563e-01
3.842917251051893718e-02,-3.120243531107450563e-01
3.870967741935484041e-02,-3.120243531107450563e-01
3.899018232819074364e-02,-3.120243531107450563e-01
3.927068723702664688e-02,-3.120243531107450563e-01
3.955119214586255705e-02,-3.120243531107450563e-01
3.983169705469846028e-02,-3.089802130803963598e-01
4.011220196353436351e-02,-3.120243531107450563e-01
4.039270687237026675e-02,-3.120243531107450563e-01
4.067321178120616998e-02,-3.120243531107450563e-01
4.095371669004208015e-02,-3.120243531107450563e-01
4.123422159887798338e-02,-3.120243531107450563e-01
4.151472650771388662e-02,-3.120243531107450563e-01
4.179523141654978985e-02,-3.120243531107450563e-01
4.207573632538569308e-02,-3.120243531107450563e-01
4.235624123422160325e-02,-3.120243531107450563e-01
4.263674614305750649e-02,-3.150684931410938083e-01
4.291725105189340972e-02,-3.150684931410938083e-01
4.319775596072931295e-02,-3.181126331714425048e-01
4.347826086956521618e-02,-3.211567732017912569e-01
4.375876577840112636e-02,-3.211567732017912569e-01
4.403927068723702959e-02,-3.242009132321400089e-01
4.431977559607293282e-02,-3.272450532624887054e-01
4.460028050490883605e-02,-3.302891932928374574e-01
4.488078541374473929e-02,-3.333333333231862095e-01
4.516129032258064946e-02,-3.363774733535349060e-01
4.544179523141655269e-02,-3.424657534142324100e-01
4.572230014025245592e-02,-3.485540334749298585e-01
4.600280504908835916e-02,-3.546423135356273071e-01
4.628330995792426933e-02,-3.576864535659760591e-01
4.656381486676017256e-02,-3.637747336266735076e-01
4.684431977559607579e-02,-3.698630136873709562e-01
4.712482468443197903e-02,-3.729071537177197082e-01
4.740532959326788226e-02,-3.789954337784171567e-01
4.768583450210379243e-02,-3.850837138391146608e-01
4.796633941093969566e-02,-3.881278538694633573e-01
4.824684431977559890e-02,-3.942161339301608614e-01
4.852734922861150213e-02,-3.972602739605095579e-01
4.880785413744740536e-02,-4.033485540212070619e-01
4.908835904628331553e-02,-4.063926940515557584e-01
4.936886395511921877e-02,-4.124809741122532070e-01
4.964936886395512200e-02,-4.185692541729507110e-01
4.992987377279102523e-02,-4.246575342336481595e-01
5.021037868162692847e-02,-4.277016742639969116e-01
5.049088359046283864e-02,-4.337899543246943601e-01
5.077138849929874187e-02,-4.368340943550431121e-01
5.105189340813464510e-02,-4.429223744157405607e-01
5.133239831697054834e-02,-4.459665144460893127e-01
5.161290322580645157e-02,-4.520547945067867612e-01
5.189340813464236174e-02,-4.550989345371355133e-01
5.217391304347826497e-02,-4.581430745674842098e-01
5.245441795231416821e-02,-5.159817351441101652e-01
5.273492286115007144e-02,-5.159817351441101652e-01
5.301542776998597467e-02,-5.159817351441101652e-01
5.329593267882188484e-02,-5.159817351441101652e-01
5.357643758765778808e-02,-5.159817351441101652e-01
5.385694249649369131e-02,-5.159817351441101652e-01
5.413744740532959454e-02,-5.159817351441101652e-01
5.441795231416549777e-02,-5.159817351441101652e-01
5.469845722300140795e-02,-5.159817351441101652e-01
5.497896213183731118e-02,-5.159817351441101652e-01
5.525946704067321441e-02,-5.159817351441101652e-01
5.553997194950911764e-02,-5.159817351441101652e-01
5.582047685834502088e-02,-5.159817351441101652e-01
5.610098176718093105e-02,-5.159817351441101652e-01
5.638148667601683428e-02,-5.159817351441101652e-01
5.666199158485273751e-02,-5.159817351441101652e-01
5.694249649368864075e-02,-5.159817351441101652e-01
5.722300140252454398e-02,-5.159817351441101652e-01
5.750350631136045415e-02,-5.159817351441101652e-01
5.778401122019635738e-02,-5.159817351441101652e-01
5.806451612903226062e-02,-5.159817351441101652e-01
5.834502103786816385e-02,-5.159817351441101652e-01
5.862552594670406708e-02,-5.190258751744588617e-01
5.890603085553997725e-02,-5.190258751744588617e-01
5.918653576437588049e-02,-5.190258751744588617e-01
5.946704067321178372e-02,-5.190258751744588617e-01
5.974754558204768695e-02,-5.220700152048075582e-01
6.002805049088359018e-02,-5.251141552351563657e-01
6.030855539971950036e-02,-5.281582952655050622e-01
6.058906030855540359e-02,-5.312024352958537587e-01
6.086956521739130682e-02,-5.342465753262025663e-01
6.115007012622721005e-02,-5.403348553868999593e-01
6.143057503506311329e-02,-5.433789954172487668e-01
6.171107994389902346e-02,-5.464231354475974634e-01
6.199158485273492669e-02,-5.494672754779461599e-01
6.227208976157082992e-02,-5.555555555386436639e-01
6.255259467040673316e-02,-5.585996955689923604e-01
6.283309957924264333e-02,-5.616438355993411680e-01
6.311360448807853962e-02,-5.677321156600385610e-01
6.339410939691444979e-02,-5.707762556903873685e-01
6.367461430575035997e-02,-5.738203957207360650e-01
6.395511921458625626e-02,-5.768645357510847616e-01
6.423562412342216643e-02,-5.799086757814334581e-01
6.451612903225806273e-02,-5.859969558421309621e-01
6.479663394109397290e-02,-5.890410958724796586e-01
6.507713884992988307e-02,-5.920852359028284662e-01
6.535764375876577936e-02,-5.981735159635258592e-01
6.563814866760168953e-02,-6.012176559938746667e-01
6.591865357643758583e-02,-6.042617960242233632e-01
6.619915848527349600e-02,-6.073059360545720597e-01
6.647966339410940617e-02,-6.103500760849208673e-01
6.676016830294530247e-02,-6.133942161152695638e-01
6.704067321178121264e-02,-6.164383561456182603e-01
6.732117812061710893e-02,-6.164383561456182603e-01
6.760168302945301910e-02,-6.194824961759670678e-01
6.788218793828892927e-02,-6.194824961759670678e-01
6.816269284712482557e-02,-6.194824961759670678e-01
6.844319775596073574e-02,-6.194824961759670678e-01
6.872370266479663203e-02,-6.194824961759670678e-01
6.900420757363254221e-02,-6.164383561456182603e-01
6.928471248246845238e-02,-6.164383561456182603e-01
6.956521739130434867e-02,-6.133942161152695638e-01
6.984572230014025884e-02,-6.103500760849208673e-01
7.012622720897615514e-02,-6.073059360545720597e-01
7.040673211781206531e-02,-6.042617960242233632e-01
7.068723702664797548e-02,-5.951293759331771627e-01
7.096774193548387177e-02,-5.403348553868999593e-01
7.124824684431978195e-02,-4.855403348406228115e-01
7.152875175315567824e-02,-4.398782343853918086e-01
7.180925666199158841e-02,-3.607305935963247556e-01
7.208976157082749858e-02,-3.242009132321400089e-01
7.237026647966339488e-02,-2.450532724430729559e-01
7.265077138849930505e-02,-2.115677321092369056e-01
7.293127629733520134e-02,-1.628614916236571786e-01
7.321178120617111151e-02,-8.066971080424140128e-02
7.349228611500702169e-02,-5.022831050075408227e-02
7.377279102384291798e-02,4.109589040970788865e-02
7.405329593267882815e-02,7.458143074354393887e-02
7.433380084151472444e-02,2.298325722913292790e-01
7.461430575035063462e-02,9.939117199088610688e-01
7.489481065918654479e-02,9.969558599392098763e-01
7.517531556802244108e-02,9.969558599392098763e-01
7.545582047685835125e-02,9.969558599392098763e-01
7.573632538569424755e-02,9.969558599392098763e-01
7.601683029453015772e-02,9.969558599392098763e-01
7.629733520336606789e-02,9.969558599392098763e-01
7.657784011220196418e-02,9.969558599392098763e-01
7.685834502103787436e-02,9.969558599392098763e-01
7.713884992987377065e-02,9.969558599392098763e-01
7.741935483870968082e-02,9.939117199088610688e-01
7.769985974754559099e-02,9.908675798785123723e-01
7.798036465638148729e-02,9.878234398481636758e-01
7.826086956521739746e-02,9.847792998178148682e-01
7.854137447405329375e-02,9.269406392411889684e-01
7.882187938288920392e-02,8.751902587252605725e-01
7.910238429172511410e-02,6.773211567525929677e-01
7.938288920056101039e-02,5.799086757814334581e-01
7.966339410939692056e-02,4.946727549316690120e-01
7.994389901823281686e-02,2.876712328679552066e-01
8.022440392706872703e-02,2.359208523520267553e-01
8.050490883590463720e-02,1.522070015174366254e-03
8.078541374474053349e-02,-5.631659056145155162e-02
8.106591865357644366e-02,-1.902587518967957803e-01
8.134642356241233996e-02,-3.455098934445811065e-01
8.162692847124825013e-02,-4.337899543246943601e-01
8.190743338008416030e-02,-6.438356164187568620e-01
8.218793828892005660e-02,-7.138508371167777700e-01
8.246844319775596677e-02,-9.969558599392098763e-01
8.274894810659186306e-02,-9.939117199088610688e-01
8.302945301542777323e-02,-9.878234398481636758e-01
8.330995792426368340e-02,-9.756468797267686677e-01
8.359046283309957970e-02,-9.665144596357224671e-01
8.387096774193548987e-02,-9.543378995143275700e-01
8.415147265077138616e-02,-9.452054794232813695e-01
8.443197755960729634e-02,-9.391171993625839765e-01
8.471248246844320651e-02,-9.269406392411889684e-01
8.499298737727910280e-02,-9.208523591804915753e-01
8.527349228611501297e-02,-9.117199390894453748e-01
8.555399719495090927e-02,-9.056316590287478707e-01
8.583450210378681944e-02,-8.964992389377016702e-01
8.611500701262272961e-02,-8.873668188466554696e-01
8.639551192145862590e-02,-8.782343987556092690e-01
8.667601683029453608e-02,-8.660578386342143720e-01
8.695652173913043237e-02,-8.599695585735168679e-01
8.723702664796634254e-02,-8.477929984521219708e-01
8.751753155680225271e-02,-8.417047183914244668e-01
8.779803646563814901e-02,-8.325722983003782662e-01
8.807854137447405918e-02,-8.203957381789833692e-01
8.835904628330995547e-02,-8.143074581182858651e-01
8.863955119214586564e-02,-8.021308979968909680e-01
8.892005610098177582e-02,-7.960426179361934640e-01
8.920056100981767211e-02,-7.838660578147985669e-01
8.948106591865358228e-02,-7.808219177844498704e-01
8.976157082748947857e-02,-7.716894976934036698e-01
9.004207573632538875e-02,-7.595129375720087728e-01
9.032258064516129892e-02,-7.534246575113112687e-01
9.060308555399719521e-02,-7.412480973899163716e-01
9.088359046283310538e-02,-7.382039573595675641e-01
9.116409537166901556e-02,-7.351598173292188676e-01
9.144460028050491185e-02,-7.351598173292188676e-01
9.172510518934082202e-02,-7.321156772988701711e-01
9.200561009817671831e-02,-7.321156772988701711e-01
9.228611500701262849e-02,-7.290715372685213636e-01
9.256661991584853866e-02,-7.290715372685213636e-01
9.284712482468443495e-02,-7.260273972381726670e-01
9.312762973352034512e-02,-7.260273972381726670e-01
9.340813464235624142e-02,-7.229832572078239705e-01
9.368863955119215159e-02,-7.229832572078239705e-01
9.396914446002806176e-02,-7.199391171774751630e-01
9.424964936886395805e-02,-7.168949771471264665e-01
9.453015427769986823e-02,-7.168949771471264665e-01
9.481065918653576452e-02,-7.138508371167777700e-01
9.509116409537167469e-02,-7.138508371167777700e-01
9.537166900420758486e-02,-7.108066970864289624e-01
9.565217391304348116e-02,-7.077625570560802659e-01
9.593267882187939133e-02,-7.077625570560802659e-01
9.621318373071528762e-02,-7.047184170257315694e-01
9.649368863955119779e-02,-7.047184170257315694e-01
9.677419354838710797e-02,-7.016742769953827619e-01
9.705469845722300426e-02,-7.016742769953827619e-01
9.733520336605891443e-02,-6.986301369650340654e-01
9.761570827489481073e-02,-6.986301369650340654e-01
9.789621318373072090e-02,-6.955859969346853688e-01
9.817671809256663107e-02,-6.925418569043365613e-01
9.845722300140252736e-02,-6.894977168739878648e-01
9.873772791023843753e-02,-6.894977168739878648e-01
9.901823281907433383e-02,-6.864535768436391683e-01
9.929873772791024400e-02,-6.834094368132903607e-01
9.957924263674615417e-02,-6.834094368132903607e-01
9.985974754558205047e-02,-6.803652967829416642e-01
1.001402524544179606e-01,-6.773211567525929677e-01
1.004207573632538569e-01,-6.773211567525929677e-01
1.007012622720897671e-01,-6.742770167222441602e-01
1.009817671809256773e-01,-6.712328766918954637e-01
1.012622720897615736e-01,-6.712328766918954637e-01
1.015427769985974837e-01,-6.681887366615467672e-01
1.018232819074333800e-01,-6.651445966311980706e-01
1.021037868162692902e-01,-6.621004566008492631e-01
1.023842917251052004e-01,-6.590563165705005666e-01
1.026647966339410967e-01,-6.590563165705005666e-01
1.029453015427770068e-01,-6.560121765401518701e-01
1.032258064516129031e-01,-6.529680365098030626e-01
1.035063113604488133e-01,-6.499238964794543660e-01
1.037868162692847235e-01,-6.468797564491056695e-01
1.040673211781206198e-01,-6.468797564491056695e-01
1.043478260869565299e-01,-6.438356164187568620e-01
1.046283309957924262e-01,-6.407914763884081655e-01
1.049088359046283364e-01,-6.377473363580594690e-01
1.051893408134642466e-01,-6.347031963277106614e-01
1.054698457223001429e-01,-6.316590562973619649e-01
1.057503506311360530e-01,-6.286149162670132684e-01
1.060308555399719493e-01,-6.255707762366644609e-01
1.063113604488078595e-01,-6.225266362063157644e-01
1.065918653576437697e-01,-6.225266362063157644e-01
1.068723702664796660e-01,-6.194824961759670678e-01
1.071528751753155762e-01,-6.164383561456182603e-01
1.074333800841514724e-01,-6.133942161152695638e-01
1.077138849929873826e-01,-6.103500760849208673e-01
1.079943899018232928e-01,-6.073059360545720597e-01
1.082748948106591891e-01,-6.042617960242233632e-01
1.085553997194950993e-01,-6.012176559938746667e-01
1.088359046283309955e-01,-5.981735159635258592e-01
1.091164095371669057e-01,-5.951293759331771627e-01
1.093969144460028159e-01,-5.920852359028284662e-01
1.096774193548387122e-01,-5.890410958724796586e-01
1.099579242636746224e-01,-5.859969558421309621e-01
1.102384291725105186e-01,-5.829528158117822656e-01
1.105189340813464288e-01,-5.799086757814334581e-01
1.107994389901823390e-01,-5.768645357510847616e-01
1.110799438990182353e-01,-5.738203957207360650e-01
1.113604488078541455e-01,-5.707762556903873685e-01
1.116409537166900418e-01,-5.677321156600385610e-01
1.119214586255259519e-01,-5.646879756296898645e-01
1.122019635343618621e-01,-5.616438355993411680e-01
1.124824684431977584e-01,-5.585996955689923604e-01
1.127629733520336686e-01,-5.555555555386436639e-01
1.130434782608695649e-01,-5.494672754779461599e-01
1.133239831697054750e-01,-5.464231354475974634e-01
1.136044880785413852e-01,-5.433789954172487668e-01
1.138849929873772815e-01,-5.403348553868999593e-01
1.141654978962131917e-01,-5.372907153565512628e-01
1.144460028050490880e-01,-5.342465753262025663e-01
1.147265077138849981e-01,-5.312024352958537587e-01
1.150070126227209083e-01,-5.251141552351563657e-01
1.152875175315568046e-01,-5.220700152048075582e-01
1.155680224403927148e-01,-5.190258751744588617e-01
1.158485273492286111e-01,-5.159817351441101652e-01
1.161290322580645212e-01,-5.098934550834126611e-01
1.164095371669004314e-01,-5.068493150530639646e-01
1.166900420757363277e-01,-5.038051750227151571e-01
1.169705469845722379e-01,-4.977168949620177640e-01
1.172510518934081342e-01,-4.946727549316690120e-01
1.175315568022440443e-01,-4.916286149013202600e-01
1.178120617110799545e-01,-4.855403348406228115e-01
1.180925666199158508e-01,-4.824961948102740594e-01
1.183730715287517610e-01,-4.794520547799253629e-01
1.186535764375876573e-01,-4.764079147495766109e-01
1.189340813464235674e-01,-4.703196346888791624e-01
1.192145862552594776e-01,-4.672754946585304103e-01
1.194950911640953739e-01,-4.611872145978329618e-01
1.197755960729312841e-01,-4.550989345371355133e-01
1.200561009817671804e-01,-4.520547945067867612e-01
1.203366058906030905e-01,-4.459665144460893127e-01
1.206171107994390007e-01,-4.429223744157405607e-01
1.208976157082748970e-01,-4.368340943550431121e-01
1.211781206171108072e-01,-4.307458142943456081e-01
1.214586255259467035e-01,-4.277016742639969116e-01
1.217391304347826136e-01,-4.216133942032994075e-01
1.220196353436185238e-01,-4.155251141426019590e-01
1.223001402524544201e-01,-4.094368340819045105e-01
1.225806451612903303e-01,-4.033485540212070619e-01
1.228611500701262266e-01,-4.003044139908583099e-01
1.231416549789621367e-01,-3.942161339301608614e-01
1.234221598877980469e-01,-3.911719938998121093e-01
1.237026647966339432e-01,-3.881278538694633573e-01
1.239831697054698534e-01,-3.850837138391146608e-01
1.242636746143057497e-01,-3.850837138391146608e-01
1.245441795231416598e-01,-3.850837138391146608e-01
1.248246844319775700e-01,-3.881278538694633573e-01
1.251051893408134663e-01,-3.881278538694633573e-01
1.253856942496493765e-01,-3.881278538694633573e-01
1.256661991584852867e-01,-3.911719938998121093e-01
1.259467040673211968e-01,-3.911719938998121093e-01
1.262272089761570792e-01,-3.942161339301608614e-01
1.265077138849929894e-01,-3.942161339301608614e-01
1.267882187938288996e-01,-3.972602739605095579e-01
1.270687237026648098e-01,-3.972602739605095579e-01
1.273492286115007199e-01,-4.003044139908583099e-01
1.276297335203366023e-01,-4.033485540212070619e-01
1.279102384291725125e-01,-4.063926940515557584e-01
1.281907433380084227e-01,-4.063926940515557584e-01
1.284712482468443329e-01,-4.094368340819045105e-01
1.287517531556802430e-01,-4.124809741122532070e-01
1.290322580645161255e-01,-4.155251141426019590e-01
1.293127629733520356e-01,-4.185692541729507110e-01
1.295932678821879458e-01,-4.216133942032994075e-01
1.298737727910238560e-01,-4.246575342336481595e-01
1.301542776998597661e-01,-4.277016742639969116e-01
1.304347826086956486e-01,-4.307458142943456081e-01
1.307152875175315587e-01,-4.337899543246943601e-01
1.309957924263674689e-01,-4.368340943550431121e-01
1.312762973352033791e-01,-4.398782343853918086e-01
1.315568022440392892e-01,-4.429223744157405607e-01
1.318373071528751717e-01,-4.490106544764380092e-01
1.321178120617110818e-01,-4.520547945067867612e-01
1.323983169705469920e-01,-4.550989345371355133e-01
1.326788218793829022e-01,-4.611872145978329618e-01
1.329593267882188123e-01,-4.642313546281816583e-01
1.332398316970546948e-01,-4.703196346888791624e-01
1.335203366058906049e-01,-4.733637747192278589e-01
1.338008415147265151e-01,-4.794520547799253629e-01
1.340813464235624253e-01,-4.855403348406228115e-01
1.343618513323983354e-01,-4.885844748709715635e-01
1.346423562412342179e-01,-4.977168949620177640e-01
1.349228611500701280e-01,-5.038051750227151571e-01
1.352033660589060382e-01,-5.098934550834126611e-01
1.354838709677419484e-01,-5.159817351441101652e-01
1.357643758765778585e-01,-5.220700152048075582e-01
1.360448807854137410e-01,-5.281582952655050622e-01
1.363253856942496511e-01,-5.372907153565512628e-01
1.366058906030855613e-01,-5.464231354475974634e-01
1.368863955119214715e-01,-5.494672754779461599e-01
1.371669004207573817e-01,-5.555555555386436639e-01
1.374474053295932641e-01,-5.616438355993411680e-01
1.377279102384291742e-01,-5.677321156600385610e-01
1.380084151472650844e-01,-5.738203957207360650e-01
1.382889200561009946e-01,-5.799086757814334581e-01
1.385694249649369048e-01,-5.859969558421309621e-01
1.388499298737727872e-01,-5.951293759331771627e-01
1.391304347826086973e-01,-5.981735159635258592e-01
1.394109396914446075e-01,-6.042617960242233632e-01
1.396914446002805177e-01,-6.073059360545720597e-01
1.399719495091164279e-01,-6.103500760849208673e-01
1.402524544179523103e-01,-6.133942161152695638e-01
1.405329593267882204e-01,-6.194824961759670678e-01
1.408134642356241306e-01,-6.225266362063157644e-01
1.410939691444600408e-01,-6.255707762366644609e-01
1.413744740532959510e-01,-6.316590562973619649e-01
1.416549789621318334e-01,-6.347031963277106614e-01
1.419354838709677435e-01,-6.377473363580594690e-01
1.422159887798036537e-01,-6.407914763884081655e-01
1.424964936886395639e-01,-6.468797564491056695e-01
1.427769985974754741e-01,-6.468797564491056695e-01
1.430575035063113565e-01,-6.499238964794543660e-01
1.433380084151472666e-01,-6.529680365098030626e-01
1.436185133239831768e-01,-6.560121765401518701e-01
1.438990182328190870e-01,-6.590563165705005666e-01
1.441795231416549972e-01,-6.621004566008492631e-01
1.444600280504908796e-01,-6.651445966311980706e-01
1.447405329593267898e-01,-6.681887366615467672e-01
1.450210378681626999e-01,-6.712328766918954637e-01
1.453015427769986101e-01,-6.712328766918954637e-01
1.455820476858345203e-01,-6.742770167222441602e-01
1.458625525946704027e-01,-6.773211567525929677e-01
1.461430575035063129e-01,-6.803652967829416642e-01
1.464235624123422230e-01,-6.803652967829416642e-01
1.467040673211781332e-01,-6.834094368132903607e-01
1.469845722300140434e-01,-6.864535768436391683e-01
1.472650771388499258e-01,-6.864535768436391683e-01
1.475455820476858360e-01,-6.894977168739878648e-01
1.478260869565217461e-01,-6.925418569043365613e-01
1.481065918653576563e-01,-6.925418569043365613e-01
1.483870967741935665e-01,-6.955859969346853688e-01
1.486676016830294489e-01,-6.986301369650340654e-01
1.489481065918653591e-01,-6.986301369650340654e-01
1.492286115007012692e-01,-7.016742769953827619e-01
1.495091164095371794e-01,-7.047184170257315694e-01
1.497896213183730896e-01,-7.047184170257315694e-01
1.500701262272089720e-01,-7.077625570560802659e-01
1.503506311360448822e-01,-7.108066970864289624e-01
1.506311360448807923e-01,-7.108066970864289624e-01
1.509116409537167025e-01,-7.138508371167777700e-01
1.511921458625526127e-01,-7.138508371167777700e-01
1.514726507713884951e-01,-7.168949771471264665e-01
1.517531556802244053e-01,-7.168949771471264665e-01
1.520336605890603154e-01,-7.168949771471264665e-01
1.523141654978962256e-01,-7.199391171774751630e-01
1.525946704067321358e-01,-7.199391171774751630e-01
1.528751753155680182e-01,-7.229832572078239705e-01
1.531556802244039284e-01,-7.229832572078239705e-01
1.534361851332398385e-01,-7.229832572078239705e-01
1.537166900420757487e-01,-7.229832572078239705e-01
1.539971949509116589e-01,-7.260273972381726670e-01
1.542776998597475413e-01,-7.260273972381726670e-01
1.545582047685834515e-01,-7.290715372685213636e-01
1.548387096774193616e-01,-7.290715372685213636e-01
1.551192145862552718e-01,-7.290715372685213636e-01
1.553997194950911820e-01,-7.290715372685213636e-01
1.556802244039270644e-01,-7.321156772988701711e-01
1.559607293127629746e-01,-7.321156772988701711e-01
1.562412342215988847e-01,-7.321156772988701711e-01
1.565217391304347949e-01,-7.321156772988701711e-01
1.568022440392707051e-01,-7.351598173292188676e-01
1.570827489481065875e-01,-7.351598173292188676e-01
1.573632538569424977e-01,-7.351598173292188676e-01
1.576437587657784078e-01,-7.351598173292188676e-01
1.579242636746143180e-01,-7.351598173292188676e-01
1.582047685834502282e-01,-7.351598173292188676e-01
1.584852734922861106e-01,-7.382039573595675641e-01
1.587657784011220208e-01,-7.382039573595675641e-01
1.590462833099579310e-01,-7.382039573595675641e-01
1.593267882187938411e-01,-7.382039573595675641e-01
1.596072931276297513e-01,-7.382039573595675641e-01
1.598877980364656337e-01,-7.382039573595675641e-01
1.601683029453015439e-01,-7.382039573595675641e-01
1.604488078541374541e-01,-7.382039573595675641e-01
1.607293127629733642e-01,-7.382039573595675641e-01
1.610098176718092744e-01,-7.382039573595675641e-01
1.612903225806451568e-01,-7.382039573595675641e-01
1.615708274894810670e-01,-7.351598173292188676e-01
1.618513323983169772e-01,-7.351598173292188676e-01
1.621318373071528873e-01,-7.351598173292188676e-01
1.624123422159887975e-01,-7.351598173292188676e-01
1.626928471248246799e-01,-7.351598173292188676e-01
1.629733520336605901e-01,-7.351598173292188676e-01
1.632538569424965003e-01,-7.351598173292188676e-01
1.635343618513324104e-01,-7.351598173292188676e-01
1.638148667601683206e-01,-7.321156772988701711e-01
1.640953716690042030e-01,-7.321156772988701711e-01
1.643758765778401132e-01,-7.321156772988701711e-01
1.646563814866760234e-01,-7.290715372685213636e-01
1.649368863955119335e-01,-7.290715372685213636e-01
1.652173913043478437e-01,-7.290715372685213636e-01
1.654978962131837261e-01,-7.290715372685213636e-01
1.657784011220196363e-01,-7.290715372685213636e-01
1.660589060308555465e-01,-7.260273972381726670e-01
1.663394109396914566e-01,-7.260273972381726670e-01
1.666199158485273668e-01,-7.229832572078239705e-01
1.669004207573632492e-01,-7.229832572078239705e-01
1.671809256661991594e-01,-7.199391171774751630e-01
1.674614305750350696e-01,-7.199391171774751630e-01
1.677419354838709797e-01,-7.168949771471264665e-01
1.680224403927068899e-01,-7.168949771471264665e-01
1.683029453015427723e-01,-7.138508371167777700e-01
1.685834502103786825e-01,-7.138508371167777700e-01
1.688639551192145927e-01,-7.108066970864289624e-01
1.691444600280505028e-01,-7.077625570560802659e-01
1.694249649368864130e-01,-7.077625570560802659e-01
1.697054698457222954e-01,-7.047184170257315694e-01
1.699859747545582056e-01,-7.016742769953827619e-01
1.702664796633941158e-01,-6.986301369650340654e-01
1.705469845722300259e-01,-6.955859969346853688e-01
1.708274894810659361e-01,-6.925418569043365613e-01
1.711079943899018185e-01,-6.894977168739878648e-01
1.713884992987377287e-01,-6.864535768436391683e-01
1.716690042075736389e-01,-6.834094368132903607e-01
1.719495091164095490e-01,-6.803652967829416642e-01
1.722300140252454592e-01,-6.773211567525929677e-01
1.725105189340813416e-01,-6.742770167222441602e-01
1.727910238429172518e-01,-6.712328766918954637e-01
1.730715287517531620e-01,-6.651445966311980706e-01
1.733520336605890722e-01,-6.621004566008492631e-01
1.736325385694249823e-01,-6.560121765401518701e-01
1.739130434782608647e-01,-6.529680365098030626e-01
1.741935483870967749e-01,-6.499238964794543660e-01
1.744740532959326851e-01,-6.438356164187568620e-01
1.747545582047685953e-01,-6.407914763884081655e-01
1.750350631136045054e-01,-6.377473363580594690e-01
1.753155680224403878e-01,-6.347031963277106614e-01
1.755960729312762980e-01,-6.316590562973619649e-01
1.758765778401122082e-01,-6.255707762366644609e-01
1.761570827489481184e-01,-6.225266362063157644e-01
1.764375876577840285e-01,-6.194824961759670678e-01
1.767180925666199109e-01,-6.164383561456182603e-01
1.769985974754558211e-01,-6.133942161152695638e-01
1.772791023842917313e-01,-6.103500760849208673e-01
1.775596072931276415e-01,-6.073059360545720597e-01
1.778401122019635516e-01,-6.012176559938746667e-01
1.781206171107994340e-01,-5.981735159635258592e-01
1.784011220196353442e-01,-5.951293759331771627e-01
1.786816269284712544e-01,-5.920852359028284662e-01
1.789621318373071646e-01,-5.920852359028284662e-01
1.792426367461430747e-01,-5.890410958724796586e-01
1.795231416549789571e-01,-5.859969558421309621e-01
1.798036465638148673e-01,-5.829528158117822656e-01
1.800841514726507775e-01,-5.799086757814334581e-01
1.803646563814866877e-01,-5.768645357510847616e-01
1.806451612903225978e-01,-5.738203957207360650e-01
1.809256661991585080e-01,-5.738203957207360650e-01
1.812061711079943904e-01,-5.707762556903873685e-01
1.814866760168303006e-01,-5.677321156600385610e-01
1.817671809256662108e-01,-5.646879756296898645e-01
1.820476858345021209e-01,-5.616438355993411680e-01
1.823281907433380311e-01,-5.616438355993411680e-01
1.826086956521739135e-01,-5.585996955689923604e-01
1.828892005610098237e-01,-5.555555555386436639e-01
1.831697054698457339e-01,-5.555555555386436639e-01
1.834502103786816440e-01,-5.525114155082949674e-01
1.837307152875175542e-01,-5.525114155082949674e-01
1.840112201963534366e-01,-5.494672754779461599e-01
1.842917251051893468e-01,-5.464231354475974634e-01
1.845722300140252570e-01,-5.464231354475974634e-01
1.848527349228611671e-01,-5.433789954172487668e-01
1.851332398316970773e-01,-5.433789954172487668e-01
1.854137447405329597e-01,-5.403348553868999593e-01
1.856942496493688699e-01,-5.403348553868999593e-01
1.859747545582047801e-01,-5.372907153565512628e-01
1.862552594670406902e-01,-5.372907153565512628e-01
1.865357643758766004e-01,-5.342465753262025663e-01
1.868162692847124828e-01,-5.312024352958537587e-01
1.870967741935483930e-01,-5.312024352958537587e-01
1.873772791023843032e-01,-5.312024352958537587e-01
1.876577840112202133e-01,-5.281582952655050622e-01
1.879382889200561235e-01,-5.281582952655050622e-01
1.882187938288920059e-01,-5.251141552351563657e-01
1.884992987377279161e-01,-5.251141552351563657e-01
1.887798036465638263e-01,-5.251141552351563657e-01
1.890603085553997365e-01,-5.251141552351563657e-01
1.893408134642356466e-01,-5.220700152048075582e-01
1.896213183730715290e-01,-5.220700152048075582e-01
1.899018232819074392e-01,-5.190258751744588617e-01
1.901823281907433494e-01,-5.190258751744588617e-01
1.904628330995792596e-01,-5.190258751744588617e-01
1.907433380084151697e-01,-5.190258751744588617e-01
1.910238429172510521e-01,-5.190258751744588617e-01
1.913043478260869623e-01,-5.190258751744588617e-01
1.915848527349228725e-01,-5.190258751744588617e-01
1.918653576437587827e-01,-5.159817351441101652e-01
1.921458625525946928e-01,-5.159817351441101652e-01
1.924263674614305752e-01,-5.159817351441101652e-01
1.927068723702664854e-01,-5.159817351441101652e-01
1.929873772791023956e-01,-5.159817351441101652e-01
1.932678821879383058e-01,-5.159817351441101652e-01
1.935483870967742159e-01,-5.159817351441101652e-01
1.938288920056100983e-01,-5.159817351441101652e-01
1.941093969144460085e-01,-5.159817351441101652e-01
1.943899018232819187e-01,-5.159817351441101652e-01
1.946704067321178289e-01,-5.159817351441101652e-01
1.949509116409537390e-01,-5.159817351441101652e-01
1.952314165497896215e-01,-5.159817351441101652e-01
1.955119214586255316e-01,-5.159817351441101652e-01
1.957924263674614418e-01,-5.159817351441101652e-01
1.960729312762973520e-01,-5.159817351441101652e-01
1.963534361851332621e-01,-5.159817351441101652e-01
1.966339410939691446e-01,-5.159817351441101652e-01
1.969144460028050547e-01,-5.159817351441101652e-01
1.971949509116409649e-01,-5.159817351441101652e-01
1.974754558204768751e-01,-5.159817351441101652e-01
1.977559607293127852e-01,-5.159817351441101652e-01
1.980364656381486677e-01,-5.159817351441101652e-01
1.983169705469845778e-01,-5.159817351441101652e-01
1.985974754558204880e-01,-5.159817351441101652e-01
1.988779803646563982e-01,-5.159817351441101652e-01
1.991584852734923083e-01,-5.159817351441101652e-01
1.994389901823281908e-01,-5.159817351441101652e-01
1.997194950911641009e-01,-5.159817351441101652e-01
2.000000000000000111e-01,-5.159817351441101652e-01
2.002805049088359213e-01,-5.159817351441101652e-01
2.005610098176718314e-01,-5.159817351441101652e-01
2.008415147265077139e-01,-5.159817351441101652e-01
2.011220196353436240e-01,-5.159817351441101652e-01
2.014025245441795342e-01,-5.159817351441101652e-01
2.016830294530154444e-01,-5.159817351441101652e-01
2.019635343618513545e-01,-5.159817351441101652e-01
2.022440392706872370e-01,-5.159817351441101652e-01
2.025245441795231471e-01,-5.159817351441101652e-01
2.028050490883590573e-01,-5.159817351441101652e-01
2.030855539971949675e-01,-5.159817351441101652e-01
2.033660589060308777e-01,-5.159817351441101652e-01
2.036465638148667601e-01,-5.159817351441101652e-01
2.039270687237026702e-01,-5.159817351441101652e-01
2.042075736325385804e-01,-5.159817351441101652e-01
2.044880785413744906e-01,-5.159817351441101652e-01
2.047685834502104008e-01,-5.159817351441101652e-01
2.050490883590462832e-01,-5.159817351441101652e-01
2.053295932678821933e-01,-5.159817351441101652e-01
2.056100981767181035e-01,-5.159817351441101652e-01
2.058906030855540137e-01,-5.159817351441101652e-01
2.061711079943899239e-01,-5.159817351441101652e-01
2.064516129032258063e-01,-5.159817351441101652e-01
2.067321178120617164e-01,-5.159817351441101652e-01
2.070126227208976266e-01,-5.159817351441101652e-01
2.072931276297335368e-01,-5.159817351441101652e-01
2.075736325385694470e-01,-5.159817351441101652e-01
2.078541374474053294e-01,-5.159817351441101652e-01
2.081346423562412395e-01,-5.159817351441101652e-01
2.084151472650771497e-01,-5.159817351441101652e-01
2.086956521739130599e-01,-5.159817351441101652e-01
2.089761570827489701e-01,-5.159817351441101652e-01
2.092566619915848525e-01,-5.159817351441101652e-01
2.095371669004207626e-01,-5.159817351441101652e-01
2.098176718092566728e-01,-5.159817351441101652e-01
2.100981767180925830e-01,-5.159817351441101652e-01
2.103786816269284932e-01,-5.159817351441101652e-01
2.106591865357643756e-01,-5.159817351441101652e-01
2.109396914446002858e-01,-5.159817351441101652e-01
2.112201963534361959e-01,-5.159817351441101652e-01
2.115007012622721061e-01,-5.159817351441101652e-01
2.117812061711080163e-01,-5.159817351441101652e-01
2.120617110799438987e-01,-5.159817351441101652e-01
2.123422159887798089e-01,-5.159817351441101652e-01
2.126227208976157190e-01,-5.159817351441101652e-01
2.129032258064516292e-01,-5.159817351441101652e-01
2.131837307152875394e-01,-5.159817351441101652e-01
2.134642356241234218e-01,-5.159817351441101652e-01
2.137447405329593320e-01,-5.159817351441101652e-01
2.140252454417952421e-01,-5.159817351441101652e-01
2.143057503506311523e-01,-5.159817351441101652e-01
2.145862552594670625e-01,-5.159817351441101652e-01
2.148667601683029449e-01,-5.159817351441101652e-01
2.151472650771388551e-01,-5.159817351441101652e-01
2.154277699859747652e-01,-5.159817351441101652e-01
2.157082748948106754e-01,-5.159817351441101652e-01
2.159887798036465856e-01,-5.159817351441101652e-01
2.162692847124824680e-01,-5.159817351441101652e-01
2.165497896213183782e-01,-5.159817351441101652e-01
2.168302945301542883e-01,-5.159817351441101652e-01
2.171107994389901985e-01,-5.159817351441101652e-01
2.173913043478261087e-01,-5.159817351441101652e-01
2.176718092566619911e-01,-5.159817351441101652e-01
2.179523141654979013e-01,-5.159817351441101652e-01
2.182328190743338114e-01,-5.159817351441101652e-01
2.185133239831697216e-01,-5.159817351441101652e-01
2.187938288920056318e-01,-5.159817351441101652e-01
2.190743338008415142e-01,-5.159817351441101652e-01
2.193548387096774244e-01,-5.159817351441101652e-01
2.196353436185133345e-01,-5.159817351441101652e-01
2.199158485273492447e-01,-5.159817351441101652e-01
2.201963534361851549e-01,-5.159817351441101652e-01
2.204768583450210373e-01,-5.159817351441101652e-01
2.207573632538569475e-01,-5.159817351441101652e-01
2.210378681626928576e-01,-5.159817351441101652e-01
2.213183730715287678e-01,-5.159817351441101652e-01
2.215988779803646780e-01,-5.159817351441101652e-01
2.218793828892005604e-01,-5.159817351441101652e-01
2.221598877980364706e-01,-5.159817351441101652e-01
2.224403927068723807e-01,-5.159817351441101652e-01
2.227208976157082909e-01,-5.159817351441101652e-01
2.230014025245442011e-01,-5.159817351441101652e-01
2.232819074333800835e-01,-5.159817351441101652e-01
2.235624123422159937e-01,-5.159817351441101652e-01
2.238429172510519038e-01,-5.159817351441101652e-01
2.241234221598878140e-01,-5.159817351441101652e-01
2.244039270687237242e-01,-5.159817351441101652e-01
2.246844319775596066e-01,-5.159817351441101652e-01
2.249649368863955168e-01,-5.159817351441101652e-01
2.252454417952314270e-01,-5.159817351441101652e-01
2.255259467040673371e-01,-5.159817351441101652e-01
2.258064516129032473e-01,-5.159817351441101652e-01
2.260869565217391297e-01,-5.159817351441101652e-01
2.263674614305750399e-01,-5.129375951137613576e-01
2.266479663394109501e-01,-5.098934550834126611e-01
2.269284712482468602e-01,-5.068493150530639646e-01
2.272089761570827704e-01,-5.038051750227151571e-01
2.274894810659186528e-01,-4.977168949620177640e-01
2.277699859747545630e-01,-4.946727549316690120e-01
2.280504908835904732e-01,-4.916286149013202600e-01
2.283309957924263833e-01,-4.855403348406228115e-01
2.286115007012622935e-01,-4.824961948102740594e-01
2.288920056100981759e-01,-4.764079147495766109e-01
2.291725105189340861e-01,-4.703196346888791624e-01
2.294530154277699963e-01,-4.642313546281816583e-01
2.297335203366059064e-01,-4.611872145978329618e-01
2.300140252454418166e-01,-4.550989345371355133e-01
2.302945301542776990e-01,-4.490106544764380092e-01
2.305750350631136092e-01,-4.459665144460893127e-01
2.308555399719495194e-01,-4.398782343853918086e-01
2.311360448807854295e-01,-4.368340943550431121e-01
2.314165497896213397e-01,-4.307458142943456081e-01
2.316970546984572221e-01,-4.277016742639969116e-01
2.319775596072931323e-01,-4.185692541729507110e-01
2.322580645161290425e-01,-4.155251141426019590e-01
2.325385694249649526e-01,-4.094368340819045105e-01
2.328190743338008628e-01,-4.063926940515557584e-01
2.330995792426367452e-01,-4.003044139908583099e-01
2.333800841514726554e-01,-3.942161339301608614e-01
2.336605890603085656e-01,-3.911719938998121093e-01
2.339410939691444757e-01,-3.850837138391146608e-01
2.342215988779803859e-01,-3.820395738087659088e-01
2.345021037868162683e-01,-3.759512937480684602e-01
2.347826086956521785e-01,-3.729071537177197082e-01
2.350631136044880887e-01,-3.089802130803963598e-01
2.353436185133239988e-01,-3.089802130803963598e-01
2.356241234221599090e-01,-3.089802130803963598e-01
2.359046283309957914e-01,-3.120243531107450563e-01
2.361851332398317016e-01,-3.120243531107450563e-01
2.364656381486676118e-01,-3.120243531107450563e-01
2.367461430575035219e-01,-3.120243531107450563e-01
2.370266479663394321e-01,-3.120243531107450563e-01
2.373071528751753145e-01,-3.120243531107450563e-01
2.375876577840112247e-01,-3.150684931410938083e-01
2.378681626928471349e-01,-3.150684931410938083e-01
2.381486676016830450e-01,-3.181126331714425048e-01
2.384291725105189552e-01,-3.181126331714425048e-01
2.387096774193548376e-01,-3.211567732017912569e-01
2.389901823281907478e-01,-3.211567732017912569e-01
2.392706872370266580e-01,-3.242009132321400089e-01
2.395511921458625682e-01,-3.242009132321400089e-01
2.398316970546984783e-01,-3.272450532624887054e-01
2.401122019635343607e-01,-3.333333333231862095e-01
2.403927068723702709e-01,-3.363774733535349060e-01
2.406732117812061811e-01,-3.424657534142324100e-01
2.409537166900420913e-01,-3.485540334749298585e-01
2.412342215988780014e-01,-3.515981735052786106e-01
2.415147265077138838e-01,-3.576864535659760591e-01
2.417952314165497940e-01,-3.637747336266735076e-01
2.420757363253857042e-01,-3.668188736570222597e-01
2.423562412342216144e-01,-3.729071537177197082e-01
2.426367461430575245e-01,-3.789954337784171567e-01
2.429172510518934069e-01,-3.820395738087659088e-01
2.431977559607293171e-01,-3.881278538694633573e-01
2.434782608695652273e-01,-3.942161339301608614e-01
2.437587657784011375e-01,-3.972602739605095579e-01
2.440392706872370476e-01,-4.033485540212070619e-01
2.443197755960729300e-01,-4.063926940515557584e-01
2.446002805049088402e-01,-4.124809741122532070e-01
2.448807854137447504e-01,-4.185692541729507110e-01
2.451612903225806606e-01,-4.216133942032994075e-01
2.454417952314165707e-01,-4.277016742639969116e-01
2.457223001402524531e-01,-4.307458142943456081e-01
2.460028050490883633e-01,-4.368340943550431121e-01
2.462833099579242735e-01,-4.398782343853918086e-01
2.465638148667601837e-01,-4.459665144460893127e-01
2.468443197755960938e-01,-4.490106544764380092e-01
2.471248246844319763e-01,-4.550989345371355133e-01
2.474053295932678864e-01,-4.581430745674842098e-01
2.476858345021037966e-01,-5.159817351441101652e-01
2.479663394109397068e-01,-5.159817351441101652e-01
2.482468443197756169e-01,-5.159817351441101652e-01
2.485273492286114994e-01,-5.159817351441101652e-01
2.488078541374474095e-01,-5.159817351441101652e-01
2.490883590462833197e-01,-5.159817351441101652e-01
2.493688639551192299e-01,-5.159817351441101652e-01
2.496493688639551400e-01,-5.159817351441101652e-01
2.499298737727910225e-01,-5.159817351441101652e-01
2.502103786816269326e-01,-5.159817351441101652e-01
2.504908835904628428e-01,-5.159817351441101652e-01
2.507713884992987530e-01,-5.159817351441101652e-01
2.510518934081346631e-01,-5.159817351441101652e-01
2.513323983169705733e-01,-5.159817351441101652e-01
2.516129032258064835e-01,-5.159817351441101652e-01
2.518934081346423937e-01,-5.159817351441101652e-01
2.521739130434782483e-01,-5.159817351441101652e-01
2.524544179523141585e-01,-5.159817351441101652e-01
2.527349228611500687e-01,-5.159817351441101652e-01
2.530154277699859788e-01,-5.159817351441101652e-01
2.532959326788218890e-01,-5.190258751744588617e-01
2.535764375876577992e-01,-5.190258751744588617e-01
2.538569424964937093e-01,-5.190258751744588617e-01
2.541374474053296195e-01,-5.190258751744588617e-01
2.544179523141655297e-01,-5.190258751744588617e-01
2.546984572230014399e-01,-5.190258751744588617e-01
2.549789621318372945e-01,-5.220700152048075582e-01
2.552594670406732047e-01,-5.220700152048075582e-01
2.555399719495091149e-01,-5.281582952655050622e-01
2.558204768583450250e-01,-5.312024352958537587e-01
2.561009817671809352e-01,-5.342465753262025663e-01
2.563814866760168454e-01,-5.372907153565512628e-01
2.566619915848527556e-01,-5.433789954172487668e-01
2.569424964936886657e-01,-5.464231354475974634e-01
2.572230014025245759e-01,-5.494672754779461599e-01
2.575035063113604861e-01,-5.525114155082949674e-01
2.577840112201963407e-01,-5.585996955689923604e-01
2.580645161290322509e-01,-5.616438355993411680e-01
2.583450210378681611e-01,-5.646879756296898645e-01
2.586255259467040712e-01,-5.677321156600385610e-01
2.589060308555399814e-01,-5.738203957207360650e-01
2.591865357643758916e-01,-5.768645357510847616e-01
2.594670406732118018e-01,-5.799086757814334581e-01
2.597475455820477119e-01,-5.859969558421309621e-01
2.600280504908836221e-01,-5.890410958724796586e-01
2.603085553997195323e-01,-5.951293759331771627e-01
2.605890603085553869e-01,-5.981735159635258592e-01
2.608695652173912971e-01,-6.012176559938746667e-01
2.611500701262272073e-01,-6.042617960242233632e-01
2.614305750350631175e-01,-6.073059360545720597e-01
2.617110799438990276e-01,-6.103500760849208673e-01
2.619915848527349378e-01,-6.133942161152695638e-01
2.622720897615708480e-01,-6.164383561456182603e-01
2.625525946704067581e-01,-6.164383561456182603e-01
2.628330995792426683e-01,-6.194824961759670678e-01
2.631136044880785785e-01,-6.194824961759670678e-01
2.633941093969144331e-01,-6.194824961759670678e-01
2.636746143057503433e-01,-6.194824961759670678e-01
2.639551192145862535e-01,-6.164383561456182603e-01
2.642356241234221637e-01,-6.164383561456182603e-01
2.645161290322580738e-01,-6.164383561456182603e-01
2.647966339410939840e-01,-6.133942161152695638e-01
2.650771388499298942e-01,-6.103500760849208673e-01
2.653576437587658043e-01,-6.103500760849208673e-01
2.656381486676017145e-01,-6.042617960242233632e-01
2.659186535764376247e-01,-5.859969558421309621e-01
2.661991584852734793e-01,-5.646879756296898645e-01
2.664796633941093895e-01,-4.824961948102740594e-01
2.667601683029452997e-01,-4.398782343853918086e-01
2.670406732117812099e-01,-4.003044139908583099e-01
2.673211781206171200e-01,-3.150684931410938083e-01
2.676016830294530302e-01,-2.907153728983039587e-01
2.678821879382889404e-01,-1.963470319574932288e-01
2.681626928471248505e-01,-1.719939117147033791e-01
2.684431977559607607e-01,-1.050228310470312648e-01
2.687237026647966709e-01,-5.022831050075408227e-02
2.690042075736325256e-01,-1.369863013656929564e-02
2.692847124824684357e-01,8.371385083459013943e-02
2.695652173913043459e-01,1.293759512898211284e-01
2.698457223001402561e-01,9.939117199088610688e-01
2.701262272089761662e-01,9.969558599392098763e-01
2.704067321178120764e-01,9.969558599392098763e-01
2.706872370266479866e-01,9.969558599392098763e-01
2.709677419354838968e-01,9.969558599392098763e-01
2.712482468443198069e-01,9.969558599392098763e-01
2.715287517531557171e-01,9.969558599392098763e-01
2.718092566619915718e-01,9.969558599392098763e-01
2.720897615708274819e-01,9.969558599392098763e-01
2.723702664796633921e-01,9.969558599392098763e-01
2.726507713884993023e-01,9.939117199088610688e-01
2.729312762973352124e-01,9.908675798785123723e-01
2.732117812061711226e-01,9.878234398481636758e-01
2.734922861150070328e-01,9.847792998178148682e-01
2.737727910238429430e-01,9.756468797267686677e-01
2.740532959326788531e-01,8.295281582700295697e-01
2.743338008415147633e-01,7.808219177844498704e-01
2.746143057503506180e-01,5.585996955689923604e-01
2.748948106591865281e-01,4.916286149013202600e-01
2.751753155680224383e-01,3.911719938998121093e-01
2.754558204768583485e-01,1.933028919271445045e-01
2.757363253856942586e-01,1.324200913201698526e-01
2.760168302945301688e-01,-7.153729071319521460e-02
2.762973352033660790e-01,-1.598173515933084543e-01
2.765778401122019892e-01,-3.242009132321400089e-01
2.768583450210378993e-01,-4.550989345371355133e-01
2.771388499298738095e-01,-5.190258751744588617e-01
2.774193548387096642e-01,-7.473363774506137647e-01
2.776998597475455743e-01,-8.234398782093320657e-01
2.779803646563814845e-01,-8.234398782093320657e-01
2.782608695652173947e-01,-8.203957381789833692e-01
2.785413744740533049e-01,-8.112633180879371686e-01
2.788218793828892150e-01,-7.929984779058447675e-01
2.791023842917251252e-01,-7.869101978451472634e-01
2.793828892005610354e-01,-7.747336377237523664e-01
2.796633941093969455e-01,-7.656012176327061658e-01
2.799438990182328557e-01,-7.564687975416599652e-01
2.802244039270687104e-01,-7.473363774506137647e-01
2.805049088359046205e-01,-7.412480973899163716e-01
2.807854137447405307e-01,-7.290715372685213636e-01
2.810659186535764409e-01,-7.199391171774751630e-01
2.813464235624123511e-01,-7.108066970864289624e-01
2.816269284712482612e-01,-7.077625570560802659e-01
2.819074333800841714e-01,-7.016742769953827619e-01
2.821879382889200816e-01,-6.986301369650340654e-01
2.824684431977559917e-01,-6.955859969346853688e-01
2.827489481065919019e-01,-6.955859969346853688e-01
2.830294530154277566e-01,-6.925418569043365613e-01
2.833099579242636668e-01,-6.925418569043365613e-01
2.835904628330995769e-01,-6.894977168739878648e-01
2.838709677419354871e-01,-6.864535768436391683e-01
2.841514726507713973e-01,-6.864535768436391683e-01
2.844319775596073074e-01,-6.864535768436391683e-01
2.847124824684432176e-01,-6.834094368132903607e-01
2.849929873772791278e-01,-6.803652967829416642e-01
2.852734922861150380e-01,-6.803652967829416642e-01
2.855539971949509481e-01,-6.803652967829416642e-01
2.858345021037868028e-01,-6.773211567525929677e-01
2.861150070126227130e-01,-6.742770167222441602e-01
2.863955119214586231e-01,-6.742770167222441602e-01
2.866760168302945333e-01,-6.712328766918954637e-01
2.869565217391304435e-01,-6.712328766918954637e-01
2.872370266479663536e-01,-6.681887366615467672e-01
2.875175315568022638e-01,-6.651445966311980706e-01
2.877980364656381740e-01,-6.651445966311980706e-01
2.880785413744740842e-01,-6.621004566008492631e-01
2.883590462833099943e-01,-6.621004566008492631e-01
2.886395511921459045e-01,-6.590563165705005666e-01
2.889200561009817592e-01,-6.560121765401518701e-01
2.892005610098176693e-01,-6.560121765401518701e-01
2.894810659186535795e-01,-6.529680365098030626e-01
2.897615708274894897e-01,-6.529680365098030626e-01
2.900420757363253998e-01,-6.499238964794543660e-01
2.903225806451613100e-01,-6.468797564491056695e-01
2.906030855539972202e-01,-6.468797564491056695e-01
2.908835904628331304e-01,-6.438356164187568620e-01
2.911640953716690405e-01,-6.407914763884081655e-01
2.914446002805049507e-01,-6.407914763884081655e-01
2.917251051893408054e-01,-6.377473363580594690e-01
2.920056100981767155e-01,-6.347031963277106614e-01
2.922861150070126257e-01,-6.316590562973619649e-01
2.925666199158485359e-01,-6.316590562973619649e-01
2.928471248246844461e-01,-6.286149162670132684e-01
2.931276297335203562e-01,-6.255707762366644609e-01
2.934081346423562664e-01,-6.225266362063157644e-01
2.936886395511921766e-01,-6.225266362063157644e-01
2.939691444600280867e-01,-6.194824961759670678e-01
2.942496493688639969e-01,-6.164383561456182603e-01
2.945301542776998516e-01,-6.133942161152695638e-01
2.948106591865357617e-01,-6.133942161152695638e-01
2.950911640953716719e-01,-6.103500760849208673e-01
2.953716690042075821e-01,-6.073059360545720597e-01
2.956521739130434923e-01,-6.073059360545720597e-01
2.959326788218794024e-01,-6.042617960242233632e-01
2.962131837307153126e-01,-6.012176559938746667e-01
2.964936886395512228e-01,-5.981735159635258592e-01
2.967741935483871329e-01,-5.951293759331771627e-01
2.970546984572230431e-01,-5.951293759331771627e-01
2.973352033660588978e-01,-5.920852359028284662e-01
2.976157082748948079e-01,-5.890410958724796586e-01
2.978962131837307181e-01,-5.859969558421309621e-01
2.981767180925666283e-01,-5.829528158117822656e-01
2.984572230014025385e-01,-5.799086757814334581e-01
2.987377279102384486e-01,-5.768645357510847616e-01
2.990182328190743588e-01,-5.738203957207360650e-01
2.992987377279102690e-01,-5.707762556903873685e-01
2.995792426367461792e-01,-5.677321156600385610e-01
2.998597475455820893e-01,-5.646879756296898645e-01
3.001402524544179440e-01,-5.616438355993411680e-01
3.004207573632538542e-01,-5.585996955689923604e-01
3.007012622720897643e-01,-5.585996955689923604e-01
3.009817671809256745e-01,-5.555555555386436639e-01
3.012622720897615847e-01,-5.525114155082949674e-01
3.015427769985974948e-01,-5.494672754779461599e-01
3.018232819074334050e-01,-5.464231354475974634e-01
3.021037868162693152e-01,-5.433789954172487668e-01
3.023842917251052254e-01,-5.403348553868999593e-01
3.026647966339411355e-01,-5.372907153565512628e-01
3.029453015427769902e-01,-5.312024352958537587e-01
3.032258064516129004e-01,-5.281582952655050622e-01
3.035063113604488105e-01,-5.251141552351563657e-01
3.037868162692847207e-01,-5.220700152048075582e-01
3.040673211781206309e-01,-5.190258751744588617e-01
3.043478260869565410e-01,-5.159817351441101652e-01
3.046283309957924512e-01,-5.129375951137613576e-01
3.049088359046283614e-01,-5.068493150530639646e-01
3.051893408134642716e-01,-5.038051750227151571e-01
3.054698457223001817e-01,-5.007610349923664605e-01
3.057503506311360364e-01,-4.977168949620177640e-01
3.060308555399719466e-01,-4.946727549316690120e-01
3.063113604488078567e-01,-4.916286149013202600e-01
3.065918653576437669e-01,-4.855403348406228115e-01
3.068723702664796771e-01,-4.824961948102740594e-01
3.071528751753155873e-01,-4.794520547799253629e-01
3.074333800841514974e-01,-4.764079147495766109e-01
3.077138849929874076e-01,-4.703196346888791624e-01
3.079943899018233178e-01,-4.672754946585304103e-01
3.082748948106592279e-01,-4.642313546281816583e-01
3.085553997194950826e-01,-4.581430745674842098e-01
3.088359046283309928e-01,-4.550989345371355133e-01
3.091164095371669029e-01,-4.490106544764380092e-01
3.093969144460028131e-01,-4.459665144460893127e-01
3.096774193548387233e-01,-4.429223744157405607e-01
3.099579242636746335e-01,-4.368340943550431121e-01
3.102384291725105436e-01,-4.337899543246943601e-01
3.105189340813464538e-01,-4.277016742639969116e-01
3.107994389901823640e-01,-4.216133942032994075e-01
3.110799438990182741e-01,-4.185692541729507110e-01
3.113604488078541288e-01,-4.124809741122532070e-01
3.116409537166900390e-01,-4.094368340819045105e-01
3.119214586255259491e-01,-4.033485540212070619e-01
3.122019635343618593e-01,-4.003044139908583099e-01
3.124824684431977695e-01,-3.942161339301608614e-01
3.127629733520336797e-01,-3.911719938998121093e-01
3.130434782608695898e-01,-3.850837138391146608e-01
3.133239831697055000e-01,-3.789954337784171567e-01
3.136044880785414102e-01,-3.729071537177197082e-01
3.138849929873773204e-01,-3.668188736570222597e-01
3.141654978962131750e-01,-3.637747336266735076e-01
3.144460028050490852e-01,-3.576864535659760591e-01
3.147265077138849954e-01,-3.515981735052786106e-01
3.150070126227209055e-01,-3.455098934445811065e-01
3.152875175315568157e-01,-3.394216133838836580e-01
3.155680224403927259e-01,-3.363774733535349060e-01
3.158485273492286360e-01,-3.333333333231862095e-01
3.161290322580645462e-01,-3.302891932928374574e-01
3.164095371669004564e-01,-3.272450532624887054e-01
3.166900420757363666e-01,-3.272450532624887054e-01
3.169705469845722212e-01,-3.272450532624887054e-01
3.172510518934081314e-01,-3.272450532624887054e-01
3.175315568022440416e-01,-3.272450532624887054e-01
3.178120617110799517e-01,-3.272450532624887054e-01
3.180925666199158619e-01,-3.272450532624887054e-01
3.183730715287517721e-01,-3.272450532624887054e-01
3.186535764375876822e-01,-3.272450532624887054e-01
3.189340813464235924e-01,-3.272450532624887054e-01
3.192145862552595026e-01,-3.272450532624887054e-01
3.194950911640954128e-01,-3.272450532624887054e-01
3.197755960729312674e-01,-3.272450532624887054e-01
3.200561009817671776e-01,-3.272450532624887054e-01
3.203366058906030878e-01,-3.302891932928374574e-01
3.206171107994389979e-01,-3.302891932928374574e-01
3.208976157082749081e-01,-3.333333333231862095e-01
3.211781206171108183e-01,-3.333333333231862095e-01
3.214586255259467285e-01,-3.333333333231862095e-01
3.217391304347826386e-01,-3.333333333231862095e-01
3.220196353436185488e-01,-3.363774733535349060e-01
3.223001402524544590e-01,-3.363774733535349060e-01
3.225806451612903136e-01,-3.363774733535349060e-01
3.228611500701262238e-01,-3.394216133838836580e-01
3.231416549789621340e-01,-3.394216133838836580e-01
3.234221598877980441e-01,-3.424657534142324100e-01
3.237026647966339543e-01,-3.424657534142324100e-01
3.239831697054698645e-01,-3.424657534142324100e-01
3.242636746143057747e-01,-3.455098934445811065e-01
3.245441795231416848e-01,-3.485540334749298585e-01
3.248246844319775950e-01,-3.515981735052786106e-01
3.251051893408135052e-01,-3.515981735052786106e-01
3.253856942496493598e-01,-3.546423135356273071e-01
3.256661991584852700e-01,-3.576864535659760591e-01
3.259467040673211802e-01,-3.576864535659760591e-01
3.262272089761570903e-01,-3.607305935963247556e-01
3.265077138849930005e-01,-3.637747336266735076e-01
3.267882187938289107e-01,-3.668188736570222597e-01
3.270687237026648209e-01,-3.668188736570222597e-01
3.273492286115007310e-01,-3.698630136873709562e-01
3.276297335203366412e-01,-3.729071537177197082e-01
3.279102384291725514e-01,-3.759512937480684602e-01
3.281907433380084060e-01,-3.789954337784171567e-01
3.284712482468443162e-01,-3.820395738087659088e-01
3.287517531556802264e-01,-3.850837138391146608e-01
3.290322580645161366e-01,-3.881278538694633573e-01
3.293127629733520467e-01,-3.911719938998121093e-01
3.295932678821879569e-01,-3.942161339301608614e-01
3.298737727910238671e-01,-3.972602739605095579e-01
3.301542776998597772e-01,-4.003044139908583099e-01
3.304347826086956874e-01,-4.033485540212070619e-01
3.307152875175315976e-01,-4.063926940515557584e-01
3.309957924263674522e-01,-4.124809741122532070e-01
3.312762973352033624e-01,-4.155251141426019590e-01
3.315568022440392726e-01,-4.185692541729507110e-01
3.318373071528751828e-01,-4.216133942032994075e-01
3.321178120617110929e-01,-4.277016742639969116e-01
3.323983169705470031e-01,-4.307458142943456081e-01
3.326788218793829133e-01,-4.368340943550431121e-01
3.329593267882188234e-01,-4.429223744157405607e-01
3.332398316970547336e-01,-4.459665144460893127e-01
3.335203366058906438e-01,-4.520547945067867612e-01
3.338008415147264984e-01,-4.581430745674842098e-01
3.340813464235624086e-01,-4.642313546281816583e-01
3.343618513323983188e-01,-4.672754946585304103e-01
3.346423562412342290e-01,-4.733637747192278589e-01
3.349228611500701391e-01,-4.794520547799253629e-01
3.352033660589060493e-01,-4.855403348406228115e-01
3.354838709677419595e-01,-4.946727549316690120e-01
3.357643758765778697e-01,-5.007610349923664605e-01
3.360448807854137798e-01,-5.068493150530639646e-01
3.363253856942496900e-01,-5.159817351441101652e-01
3.366058906030855447e-01,-5.220700152048075582e-01
3.368863955119214548e-01,-5.281582952655050622e-01
3.371669004207573650e-01,-5.342465753262025663e-01
3.374474053295932752e-01,-5.403348553868999593e-01
3.377279102384291853e-01,-5.464231354475974634e-01
3.380084151472650955e-01,-5.525114155082949674e-01
3.382889200561010057e-01,-5.555555555386436639e-01
3.385694249649369159e-01,-5.616438355993411680e-01
3.388499298737728260e-01,-5.646879756296898645e-01
3.391304347826087362e-01,-5.707762556903873685e-01
3.394109396914445909e-01,-5.768645357510847616e-01
3.396914446002805010e-01,-5.799086757814334581e-01
3.399719495091164112e-01,-5.859969558421309621e-01
3.402524544179523214e-01,-5.890410958724796586e-01
3.405329593267882315e-01,-5.951293759331771627e-01
3.408134642356241417e-01,-5.981735159635258592e-01
3.410939691444600519e-01,-6.012176559938746667e-01
3.413744740532959621e-01,-6.042617960242233632e-01
3.416549789621318722e-01,-6.073059360545720597e-01
3.419354838709677824e-01,-6.103500760849208673e-01
3.422159887798036371e-01,-6.133942161152695638e-01
3.424964936886395472e-01,-6.164383561456182603e-01
3.427769985974754574e-01,-6.194824961759670678e-01
3.430575035063113676e-01,-6.225266362063157644e-01
3.433380084151472778e-01,-6.255707762366644609e-01
3.436185133239831879e-01,-6.286149162670132684e-01
3.438990182328190981e-01,-6.286149162670132684e-01
3.441795231416550083e-01,-6.316590562973619649e-01
3.444600280504909184e-01,-6.347031963277106614e-01
3.447405329593268286e-01,-6.377473363580594690e-01
3.450210378681626833e-01,-6.407914763884081655e-01
3.453015427769985934e-01,-6.407914763884081655e-01
3.455820476858345036e-01,-6.438356164187568620e-01
3.458625525946704138e-01,-6.468797564491056695e-01
3.461430575035063240e-01,-6.468797564491056695e-01
3.464235624123422341e-01,-6.499238964794543660e-01
3.467040673211781443e-01,-6.529680365098030626e-01
3.469845722300140545e-01,-6.529680365098030626e-01
3.472650771388499646e-01,-6.560121765401518701e-01
3.475455820476858748e-01,-6.560121765401518701e-01
3.478260869565217295e-01,-6.590563165705005666e-01
3.481065918653576396e-01,-6.621004566008492631e-01
3.483870967741935498e-01,-6.621004566008492631e-01
3.486676016830294600e-01,-6.651445966311980706e-01
3.489481065918653702e-01,-6.651445966311980706e-01
3.492286115007012803e-01,-6.651445966311980706e-01
3.495091164095371905e-01,-6.681887366615467672e-01
3.497896213183731007e-01,-6.681887366615467672e-01
3.500701262272090108e-01,-6.712328766918954637e-01
3.503506311360449210e-01,-6.712328766918954637e-01
3.506311360448807757e-01,-6.712328766918954637e-01
3.509116409537166859e-01,-6.712328766918954637e-01
3.511921458625525960e-01,-6.742770167222441602e-01
3.514726507713885062e-01,-6.742770167222441602e-01
3.517531556802244164e-01,-6.742770167222441602e-01
3.520336605890603265e-01,-6.773211567525929677e-01
3.523141654978962367e-01,-6.773211567525929677e-01
3.525946704067321469e-01,-6.773211567525929677e-01
3.528751753155680571e-01,-6.773211567525929677e-01
3.531556802244039672e-01,-6.803652967829416642e-01
3.534361851332398219e-01,-6.803652967829416642e-01
3.537166900420757321e-01,-6.803652967829416642e-01
3.539971949509116422e-01,-6.803652967829416642e-01
3.542776998597475524e-01,-6.803652967829416642e-01
3.545582047685834626e-01,-6.803652967829416642e-01
3.548387096774193727e-01,-6.803652967829416642e-01
3.551192145862552829e-01,-6.803652967829416642e-01
3.553997194950911931e-01,-6.803652967829416642e-01
3.556802244039271033e-01,-6.803652967829416642e-01
3.559607293127630134e-01,-6.803652967829416642e-01
3.562412342215988681e-01,-6.803652967829416642e-01
3.565217391304347783e-01,-6.803652967829416642e-01
3.568022440392706884e-01,-6.803652967829416642e-01
3.570827489481065986e-01,-6.803652967829416642e-01
3.573632538569425088e-01,-6.803652967829416642e-01
3.576437587657784190e-01,-6.803652967829416642e-01
3.579242636746143291e-01,-6.803652967829416642e-01
3.582047685834502393e-01,-6.773211567525929677e-01
3.584852734922861495e-01,-6.773211567525929677e-01
3.587657784011220596e-01,-6.773211567525929677e-01
3.590462833099579143e-01,-6.742770167222441602e-01
3.593267882187938245e-01,-6.742770167222441602e-01
3.596072931276297346e-01,-6.742770167222441602e-01
3.598877980364656448e-01,-6.712328766918954637e-01
3.601683029453015550e-01,-6.712328766918954637e-01
3.604488078541374652e-01,-6.681887366615467672e-01
3.607293127629733753e-01,-6.681887366615467672e-01
3.610098176718092855e-01,-6.651445966311980706e-01
3.612903225806451957e-01,-6.651445966311980706e-01
3.615708274894811058e-01,-6.621004566008492631e-01
3.618513323983170160e-01,-6.590563165705005666e-01
3.621318373071528707e-01,-6.590563165705005666e-01
3.624123422159887808e-01,-6.560121765401518701e-01
3.626928471248246910e-01,-6.529680365098030626e-01
3.629733520336606012e-01,-6.499238964794543660e-01
3.632538569424965114e-01,-6.438356164187568620e-01
3.635343618513324215e-01,-6.407914763884081655e-01
3.638148667601683317e-01,-6.377473363580594690e-01
3.640953716690042419e-01,-6.347031963277106614e-01
3.643758765778401520e-01,-6.316590562973619649e-01
3.646563814866760622e-01,-6.255707762366644609e-01
3.649368863955119169e-01,-6.225266362063157644e-01
3.652173913043478271e-01,-6.194824961759670678e-01
3.654978962131837372e-01,-6.133942161152695638e-01
3.657784011220196474e-01,-6.103500760849208673e-01
3.660589060308555576e-01,-6.073059360545720597e-01
3.663394109396914677e-01,-6.042617960242233632e-01
3.666199158485273779e-01,-6.012176559938746667e-01
3.669004207573632881e-01,-5.981735159635258592e-01
3.671809256661991983e-01,-5.920852359028284662e-01
3.674614305750351084e-01,-5.859969558421309621e-01
3.677419354838709631e-01,-5.829528158117822656e-01
3.680224403927068733e-01,-5.799086757814334581e-01
3.683029453015427834e-01,-5.768645357510847616e-01
3.685834502103786936e-01,-5.738203957207360650e-01
3.688639551192146038e-01,-5.707762556903873685e-01
3.691444600280505139e-01,-5.677321156600385610e-01
3.694249649368864241e-01,-5.646879756296898645e-01
3.697054698457223343e-01,-5.616438355993411680e-01
3.699859747545582445e-01,-5.585996955689923604e-01
3.702664796633941546e-01,-5.555555555386436639e-01
3.705469845722300093e-01,-5.525114155082949674e-01
3.708274894810659195e-01,-5.494672754779461599e-01
3.711079943899018296e-01,-5.464231354475974634e-01
3.713884992987377398e-01,-5.433789954172487668e-01
3.716690042075736500e-01,-5.403348553868999593e-01
3.719495091164095601e-01,-5.372907153565512628e-01
3.722300140252454703e-01,-5.372907153565512628e-01
3.725105189340813805e-01,-5.342465753262025663e-01
3.727910238429172907e-01,-5.312024352958537587e-01
3.730715287517532008e-01,-5.281582952655050622e-01
3.733520336605890555e-01,-5.251141552351563657e-01
3.736325385694249657e-01,-5.251141552351563657e-01
3.739130434782608758e-01,-5.220700152048075582e-01
3.741935483870967860e-01,-5.190258751744588617e-01
3.744740532959326962e-01,-5.159817351441101652e-01
3.747545582047686064e-01,-5.159817351441101652e-01
3.750350631136045165e-01,-5.129375951137613576e-01
3.753155680224404267e-01,-5.098934550834126611e-01
3.755960729312763369e-01,-5.098934550834126611e-01
3.758765778401122470e-01,-5.068493150530639646e-01
3.761570827489481017e-01,-5.038051750227151571e-01
3.764375876577840119e-01,-5.038051750227151571e-01
3.767180925666199220e-01,-5.007610349923664605e-01
3.769985974754558322e-01,-5.007610349923664605e-01
3.772791023842917424e-01,-4.977168949620177640e-01
3.775596072931276526e-01,-4.946727549316690120e-01
3.778401122019635627e-01,-4.946727549316690120e-01
3.781206171107994729e-01,-4.916286149013202600e-01
3.784011220196353831e-01,-4.916286149013202600e-01
3.786816269284712932e-01,-4.885844748709715635e-01
3.789621318373071479e-01,-4.885844748709715635e-01
3.792426367461430581e-01,-4.855403348406228115e-01
3.795231416549789683e-01,-4.855403348406228115e-01
3.798036465638148784e-01,-4.824961948102740594e-01
3.800841514726507886e-01,-4.824961948102740594e-01
3.803646563814866988e-01,-4.794520547799253629e-01
3.806451612903226089e-01,-4.794520547799253629e-01
3.809256661991585191e-01,-4.794520547799253629e-01
3.812061711079944293e-01,-4.764079147495766109e-01
3.814866760168303395e-01,-4.764079147495766109e-01
3.817671809256661941e-01,-4.733637747192278589e-01
3.820476858345021043e-01,-4.733637747192278589e-01
3.823281907433380145e-01,-4.703196346888791624e-01
3.826086956521739246e-01,-4.703196346888791624e-01
3.828892005610098348e-01,-4.703196346888791624e-01
3.831697054698457450e-01,-4.672754946585304103e-01
3.834502103786816551e-01,-4.672754946585304103e-01
3.837307152875175653e-01,-4.672754946585304103e-01
3.840112201963534755e-01,-4.672754946585304103e-01
3.842917251051893857e-01,-4.672754946585304103e-01
3.845722300140252403e-01,-4.642313546281816583e-01
3.848527349228611505e-01,-4.642313546281816583e-01
3.851332398316970607e-01,-4.642313546281816583e-01
3.854137447405329708e-01,-4.642313546281816583e-01
3.856942496493688810e-01,-4.642313546281816583e-01
3.859747545582047912e-01,-4.642313546281816583e-01
3.862552594670407013e-01,-4.642313546281816583e-01
3.865357643758766115e-01,-4.611872145978329618e-01
3.868162692847125217e-01,-4.611872145978329618e-01
3.870967741935484319e-01,-4.611872145978329618e-01
3.873772791023842865e-01,-4.611872145978329618e-01
3.876577840112201967e-01,-4.611872145978329618e-01
3.879382889200561069e-01,-4.611872145978329618e-01
3.882187938288920170e-01,-4.611872145978329618e-01
3.884992987377279272e-01,-4.611872145978329618e-01
3.887798036465638374e-01,-4.611872145978329618e-01
3.890603085553997476e-01,-4.611872145978329618e-01
3.893408134642356577e-01,-4.611872145978329618e-01
3.896213183730715679e-01,-4.611872145978329618e-01
3.899018232819074781e-01,-4.611872145978329618e-01
3.901823281907433327e-01,-4.611872145978329618e-01
3.904628330995792429e-01,-4.611872145978329618e-01
3.907433380084151531e-01,-4.611872145978329618e-01
3.910238429172510632e-01,-4.611872145978329618e-01
3.913043478260869734e-01,-4.611872145978329618e-01
3.915848527349228836e-01,-4.611872145978329618e-01
3.918653576437587938e-01,-4.611872145978329618e-01
3.921458625525947039e-01,-4.611872145978329618e-01
3.924263674614306141e-01,-4.611872145978329618e-01
3.927068723702665243e-01,-4.611872145978329618e-01
3.929873772791023789e-01,-4.611872145978329618e-01
3.932678821879382891e-01,-4.611872145978329618e-01
3.935483870967741993e-01,-4.611872145978329618e-01
3.938288920056101095e-01,-4.611872145978329618e-01
3.941093969144460196e-01,-4.611872145978329618e-01
3.943899018232819298e-01,-4.611872145978329618e-01
3.946704067321178400e-01,-4.611872145978329618e-01
3.949509116409537501e-01,-4.611872145978329618e-01
3.952314165497896603e-01,-4.611872145978329618e-01
3.955119214586255705e-01,-4.611872145978329618e-01
3.957924263674614251e-01,-4.611872145978329618e-01
3.960729312762973353e-01,-4.611872145978329618e-01
3.963534361851332455e-01,-4.611872145978329618e-01
3.966339410939691557e-01,-4.611872145978329618e-01
3.969144460028050658e-01,-4.611872145978329618e-01
3.971949509116409760e-01,-4.611872145978329618e-01
3.974754558204768862e-01,-4.611872145978329618e-01
3.977559607293127963e-01,-4.611872145978329618e-01
3.980364656381487065e-01,-4.611872145978329618e-01
3.983169705469846167e-01,-4.611872145978329618e-01
3.985974754558204713e-01,-4.611872145978329618e-01
3.988779803646563815e-01,-4.611872145978329618e-01
3.991584852734922917e-01,-4.611872145978329618e-01
3.994389901823282019e-01,-4.611872145978329618e-01
3.997194950911641120e-01,-4.611872145978329618e-01
4.000000000000000222e-01,-4.611872145978329618e-01
4.002805049088359324e-01,-4.611872145978329618e-01
4.005610098176718425e-01,-4.611872145978329618e-01
4.008415147265077527e-01,-4.611872145978329618e-01
4.011220196353436629e-01,-4.611872145978329618e-01
4.014025245441795176e-01,-4.611872145978329618e-01
4.016830294530154277e-01,-4.611872145978329618e-01
4.019635343618513379e-01,-4.611872145978329618e-01
4.022440392706872481e-01,-4.611872145978329618e-01
4.025245441795231582e-01,-4.611872145978329618e-01
4.028050490883590684e-01,-4.611872145978329618e-01
4.030855539971949786e-01,-4.611872145978329618e-01
4.033660589060308888e-01,-4.611872145978329618e-01
4.036465638148667989e-01,-4.611872145978329618e-01
4.039270687237027091e-01,-4.611872145978329618e-01
4.042075736325385638e-01,-4.611872145978329618e-01
4.044880785413744739e-01,-4.611872145978329618e-01
4.047685834502103841e-01,-4.611872145978329618e-01
4.050490883590462943e-01,-4.611872145978329618e-01
4.053295932678822044e-01,-4.611872145978329618e-01
4.056100981767181146e-01,-4.611872145978329618e-01
4.058906030855540248e-01,-4.611872145978329618e-01
4.061711079943899350e-01,-4.611872145978329618e-01
4.064516129032258451e-01,-4.611872145978329618e-01
4.067321178120617553e-01,-4.611872145978329618e-01
4.070126227208976100e-01,-4.611872145978329618e-01
4.072931276297335201e-01,-4.611872145978329618e-01
4.075736325385694303e-01,-4.611872145978329618e-01
4.078541374474053405e-01,-4.611872145978329618e-01
4.081346423562412506e-01,-4.611872145978329618e-01
4.084151472650771608e-01,-4.611872145978329618e-01
4.086956521739130710e-01,-4.611872145978329618e-01
4.089761570827489812e-01,-4.611872145978329618e-01
4.092566619915848913e-01,-4.611872145978329618e-01
4.095371669004208015e-01,-4.611872145978329618e-01
4.098176718092566562e-01,-4.611872145978329618e-01
4.100981767180925663e-01,-4.611872145978329618e-01
4.103786816269284765e-01,-4.611872145978329618e-01
4.106591865357643867e-01,-4.611872145978329618e-01
4.109396914446002969e-01,-4.611872145978329618e-01
4.112201963534362070e-01,-4.611872145978329618e-01
4.115007012622721172e-01,-4.611872145978329618e-01
4.117812061711080274e-01,-4.611872145978329618e-01
4.120617110799439375e-01,-4.611872145978329618e-01
4.123422159887798477e-01,-4.611872145978329618e-01
4.126227208976157024e-01,-4.611872145978329618e-01
4.129032258064516125e-01,-4.611872145978329618e-01
4.131837307152875227e-01,-4.611872145978329618e-01
4.134642356241234329e-01,-4.611872145978329618e-01
4.137447405329593431e-01,-4.611872145978329618e-01
4.140252454417952532e-01,-4.611872145978329618e-01
4.143057503506311634e-01,-4.611872145978329618e-01
4.145862552594670736e-01,-4.611872145978329618e-01
4.148667601683029837e-01,-4.611872145978329618e-01
4.151472650771388939e-01,-4.611872145978329618e-01
4.154277699859747486e-01,-4.611872145978329618e-01
4.157082748948106588e-01,-4.611872145978329618e-01
4.159887798036465689e-01,-4.611872145978329618e-01
4.162692847124824791e-01,-4.611872145978329618e-01
4.165497896213183893e-01,-4.611872145978329618e-01
4.168302945301542994e-01,-4.611872145978329618e-01
4.171107994389902096e-01,-4.611872145978329618e-01
4.173913043478261198e-01,-4.611872145978329618e-01
4.176718092566620300e-01,-4.611872145978329618e-01
4.179523141654979401e-01,-4.611872145978329618e-01
4.182328190743337948e-01,-4.611872145978329618e-01
4.185133239831697050e-01,-4.611872145978329618e-01
4.187938288920056151e-01,-4.611872145978329618e-01
4.190743338008415253e-01,-4.581430745674842098e-01
4.193548387096774355e-01,-4.550989345371355133e-01
4.196353436185133456e-01,-4.490106544764380092e-01
4.199158485273492558e-01,-4.429223744157405607e-01
4.201963534361851660e-01,-4.398782343853918086e-01
4.204768583450210762e-01,-4.337899543246943601e-01
4.207573632538569863e-01,-4.277016742639969116e-01
4.210378681626928410e-01,-4.216133942032994075e-01
4.213183730715287512e-01,-4.185692541729507110e-01
4.215988779803646613e-01,-4.124809741122532070e-01
4.218793828892005715e-01,-4.094368340819045105e-01
4.221598877980364817e-01,-4.033485540212070619e-01
4.224403927068723918e-01,-3.972602739605095579e-01
4.227208976157083020e-01,-3.942161339301608614e-01
4.230014025245442122e-01,-3.881278538694633573e-01
4.232819074333801224e-01,-3.850837138391146608e-01
4.235624123422160325e-01,-3.789954337784171567e-01
4.238429172510518872e-01,-3.729071537177197082e-01
4.241234221598877974e-01,-3.698630136873709562e-01
4.244039270687237075e-01,-3.637747336266735076e-01
4.246844319775596177e-01,-3.576864535659760591e-01
4.249649368863955279e-01,-3.546423135356273071e-01
4.252454417952314381e-01,-3.485540334749298585e-01
4.255259467040673482e-01,-3.455098934445811065e-01
4.258064516129032584e-01,-3.394216133838836580e-01
4.260869565217391686e-01,-3.363774733535349060e-01
4.263674614305750787e-01,-3.302891932928374574e-01
4.266479663394109334e-01,-3.272450532624887054e-01
4.269284712482468436e-01,-3.272450532624887054e-01
4.272089761570827537e-01,-3.242009132321400089e-01
4.274894810659186639e-01,-3.211567732017912569e-01
4.277699859747545741e-01,-3.181126331714425048e-01
4.280504908835904843e-01,-3.181126331714425048e-01
4.283309957924263944e-01,-3.150684931410938083e-01
4.286115007012623046e-01,-3.150684931410938083e-01
4.288920056100982148e-01,-3.120243531107450563e-01
4.291725105189341249e-01,-3.120243531107450563e-01
4.294530154277699796e-01,-3.120243531107450563e-01
4.297335203366058898e-01,-3.120243531107450563e-01
4.300140252454417999e-01,-3.089802130803963598e-01
4.302945301542777101e-01,-3.089802130803963598e-01
4.305750350631136203e-01,-3.120243531107450563e-01
4.308555399719495305e-01,-3.089802130803963598e-01
4.311360448807854406e-01,-3.120243531107450563e-01
4.314165497896213508e-01,-3.120243531107450563e-01
4.316970546984572610e-01,-3.120243531107450563e-01
4.319775596072931712e-01,-3.120243531107450563e-01
4.322580645161290813e-01,-3.120243531107450563e-01
4.325385694249649360e-01,-3.120243531107450563e-01
4.328190743338008462e-01,-3.120243531107450563e-01
4.330995792426367563e-01,-3.150684931410938083e-01
4.333800841514726665e-01,-3.150684931410938083e-01
4.336605890603085767e-01,-3.181126331714425048e-01
4.339410939691444868e-01,-3.181126331714425048e-01
4.342215988779803970e-01,-3.211567732017912569e-01
4.345021037868163072e-01,-3.242009132321400089e-01
4.347826086956522174e-01,-3.272450532624887054e-01
4.350631136044881275e-01,-3.302891932928374574e-01
4.353436185133239822e-01,-3.333333333231862095e-01
4.356241234221598924e-01,-3.363774733535349060e-01
4.359046283309958025e-01,-3.394216133838836580e-01
4.361851332398317127e-01,-3.455098934445811065e-01
4.364656381486676229e-01,-3.515981735052786106e-01
4.367461430575035330e-01,-3.546423135356273071e-01
4.370266479663394432e-01,-3.607305935963247556e-01
4.373071528751753534e-01,-3.668188736570222597e-01
4.375876577840112636e-01,-3.698630136873709562e-01
4.378681626928471737e-01,-3.759512937480684602e-01
4.381486676016830284e-01,-3.789954337784171567e-01
4.384291725105189386e-01,-3.850837138391146608e-01
4.387096774193548487e-01,-3.881278538694633573e-01
4.389901823281907589e-01,-3.942161339301608614e-01
4.392706872370266691e-01,-4.003044139908583099e-01
4.395511921458625793e-01,-4.033485540212070619e-01
4.398316970546984894e-01,-4.094368340819045105e-01
4.401122019635343996e-01,-4.124809741122532070e-01
4.403927068723703098e-01,-4.185692541729507110e-01
4.406732117812062199e-01,-4.246575342336481595e-01
4.409537166900420746e-01,-4.277016742639969116e-01
4.412342215988779848e-01,-4.337899543246943601e-01
4.415147265077138949e-01,-4.368340943550431121e-01
4.417952314165498051e-01,-4.429223744157405607e-01
4.420757363253857153e-01,-4.490106544764380092e-01
4.423562412342216255e-01,-4.520547945067867612e-01
4.426367461430575356e-01,-4.581430745674842098e-01
4.429172510518934458e-01,-4.581430745674842098e-01
4.431977559607293560e-01,-4.611872145978329618e-01
4.434782608695652661e-01,-4.611872145978329618e-01
4.437587657784011208e-01,-4.611872145978329618e-01
4.440392706872370310e-01,-4.611872145978329618e-01
4.443197755960729411e-01,-4.611872145978329618e-01
4.446002805049088513e-01,-4.611872145978329618e-01
4.448807854137447615e-01,-4.611872145978329618e-01
4.451612903225806717e-01,-4.611872145978329618e-01
4.454417952314165818e-01,-4.611872145978329618e-01
4.457223001402524920e-01,-4.611872145978329618e-01
4.460028050490884022e-01,-4.611872145978329618e-01
4.462833099579243124e-01,-4.611872145978329618e-01
4.465638148667601670e-01,-4.611872145978329618e-01
4.468443197755960772e-01,-4.611872145978329618e-01
4.471248246844319874e-01,-4.611872145978329618e-01
4.474053295932678975e-01,-4.611872145978329618e-01
4.476858345021038077e-01,-4.611872145978329618e-01
4.479663394109397179e-01,-4.611872145978329618e-01
4.482468443197756280e-01,-4.611872145978329618e-01
4.485273492286115382e-01,-4.611872145978329618e-01
4.488078541374474484e-01,-4.611872145978329618e-01
4.490883590462833586e-01,-4.642313546281816583e-01
4.493688639551192132e-01,-4.642313546281816583e-01
4.496493688639551234e-01,-4.642313546281816583e-01
4.499298737727910336e-01,-4.642313546281816583e-01
4.502103786816269437e-01,-4.642313546281816583e-01
4.504908835904628539e-01,-4.642313546281816583e-01
4.507713884992987641e-01,-4.642313546281816583e-01
4.510518934081346742e-01,-4.642313546281816583e-01
4.513323983169705844e-01,-4.642313546281816583e-01
4.516129032258064946e-01,-4.642313546281816583e-01
4.518934081346424048e-01,-4.642313546281816583e-01
4.521739130434782594e-01,-4.642313546281816583e-01
4.524544179523141696e-01,-4.642313546281816583e-01
4.527349228611500798e-01,-4.672754946585304103e-01
4.530154277699859899e-01,-4.672754946585304103e-01
4.532959326788219001e-01,-4.703196346888791624e-01
4.535764375876578103e-01,-4.733637747192278589e-01
4.538569424964937205e-01,-4.764079147495766109e-01
4.541374474053296306e-01,-4.824961948102740594e-01
4.544179523141655408e-01,-4.855403348406228115e-01
4.546984572230014510e-01,-4.885844748709715635e-01
4.549789621318373056e-01,-4.946727549316690120e-01
4.552594670406732158e-01,-4.977168949620177640e-01
4.555399719495091260e-01,-5.038051750227151571e-01
4.558204768583450361e-01,-5.068493150530639646e-01
4.561009817671809463e-01,-6.012176559938746667e-01
4.563814866760168565e-01,-6.042617960242233632e-01
4.566619915848527667e-01,-6.073059360545720597e-01
4.569424964936886768e-01,-6.103500760849208673e-01
4.572230014025245870e-01,-6.133942161152695638e-01
4.575035063113604972e-01,-6.133942161152695638e-01
4.577840112201963518e-01,-6.164383561456182603e-01
4.580645161290322620e-01,-6.194824961759670678e-01
4.583450210378681722e-01,-6.194824961759670678e-01
4.586255259467040823e-01,-6.194824961759670678e-01
4.589060308555399925e-01,-6.194824961759670678e-01
4.591865357643759027e-01,-6.164383561456182603e-01
4.594670406732118129e-01,-6.164383561456182603e-01
4.597475455820477230e-01,-6.164383561456182603e-01
4.600280504908836332e-01,-6.133942161152695638e-01
4.603085553997195434e-01,-6.103500760849208673e-01
4.605890603085553980e-01,-6.103500760849208673e-01
4.608695652173913082e-01,-6.073059360545720597e-01
4.611500701262272184e-01,-5.981735159635258592e-01
4.614305750350631286e-01,-5.494672754779461599e-01
4.617110799438990387e-01,-5.251141552351563657e-01
4.619915848527349489e-01,-4.307458142943456081e-01
4.622720897615708591e-01,-4.003044139908583099e-01
4.625525946704067692e-01,-3.455098934445811065e-01
4.628330995792426794e-01,-2.815829528072577581e-01
4.631136044880785896e-01,-2.480974124734216801e-01
4.633941093969144442e-01,-1.567732115629597023e-01
4.636746143057503544e-01,-1.293759512898211284e-01
4.639551192145862646e-01,-5.631659056145155162e-02
4.642356241234221748e-01,-7.610350075871830620e-03
4.645161290322580849e-01,3.805175037935915744e-02
4.647966339410939951e-01,1.506849315022622537e-01
4.650771388499299053e-01,1.872146118664470282e-01
4.653576437587658154e-01,9.939117199088610688e-01
4.656381486676017256e-01,9.969558599392098763e-01
4.659186535764376358e-01,9.969558599392098763e-01
4.661991584852734904e-01,9.969558599392098763e-01
4.664796633941094006e-01,9.969558599392098763e-01
4.667601683029453108e-01,9.969558599392098763e-01
4.670406732117812210e-01,9.969558599392098763e-01
4.673211781206171311e-01,9.969558599392098763e-01
4.676016830294530413e-01,9.969558599392098763e-01
4.678821879382889515e-01,9.939117199088610688e-01
4.681626928471248617e-01,9.939117199088610688e-01
4.684431977559607718e-01,9.908675798785123723e-01
4.687237026647966820e-01,9.847792998178148682e-01
4.690042075736325367e-01,9.817351597874661717e-01
4.692847124824684468e-01,9.238964992108402718e-01
4.695652173913043570e-01,7.534246575113112687e-01
4.698457223001402672e-01,6.894977168739878648e-01
4.701262272089761773e-01,4.611872145978329618e-01
4.704067321178120875e-01,3.820395738087659088e-01
4.706872370266479977e-01,2.146118721395856299e-01
4.709677419354839079e-01,8.675799086493887757e-02
4.712482468443198180e-01,2.891933028831295688e-02
4.715287517531557282e-01,-1.811263318057495797e-01
4.718092566619915829e-01,-2.541856925341191564e-01
4.720897615708274930e-01,-4.429223744157405607e-01
4.723702664796634032e-01,-5.464231354475974634e-01
4.726507713884993134e-01,-6.255707762366644609e-01
4.729312762973352235e-01,-8.173515981486346726e-01
4.732117812061711337e-01,-8.173515981486346726e-01
4.734922861150070439e-01,-8.173515981486346726e-01
4.737727910238429541e-01,-8.082191780575884721e-01
4.740532959326788642e-01,-7.990867579665422715e-01
4.743338008415147744e-01,-7.899543378754960710e-01
4.746143057503506291e-01,-7.808219177844498704e-01
4.748948106591865392e-01,-7.686453576630548623e-01
4.751753155680224494e-01,-7.595129375720087728e-01
4.754558204768583596e-01,-7.473363774506137647e-01
4.757363253856942698e-01,-7.412480973899163716e-01
4.760168302945301799e-01,-7.321156772988701711e-01
4.762973352033660901e-01,-7.229832572078239705e-01
4.765778401122020003e-01,-7.168949771471264665e-01
4.768583450210379104e-01,-7.077625570560802659e-01
4.771388499298738206e-01,-7.016742769953827619e-01
4.774193548387096753e-01,-6.986301369650340654e-01
4.776998597475455854e-01,-6.955859969346853688e-01
4.779803646563814956e-01,-6.925418569043365613e-01
4.782608695652174058e-01,-6.925418569043365613e-01
4.785413744740533160e-01,-6.894977168739878648e-01
4.788218793828892261e-01,-6.894977168739878648e-01
4.791023842917251363e-01,-6.894977168739878648e-01
4.793828892005610465e-01,-6.864535768436391683e-01
4.796633941093969566e-01,-6.864535768436391683e-01
4.799438990182328668e-01,-6.834094368132903607e-01
4.802244039270687215e-01,-6.834094368132903607e-01
4.805049088359046316e-01,-6.803652967829416642e-01
4.807854137447405418e-01,-6.803652967829416642e-01
4.810659186535764520e-01,-6.773211567525929677e-01
4.813464235624123622e-01,-6.742770167222441602e-01
4.816269284712482723e-01,-6.742770167222441602e-01
4.819074333800841825e-01,-6.712328766918954637e-01
4.821879382889200927e-01,-6.712328766918954637e-01
4.824684431977560028e-01,-6.681887366615467672e-01
4.827489481065919130e-01,-6.681887366615467672e-01
4.830294530154277677e-01,-6.651445966311980706e-01
4.833099579242636779e-01,-6.651445966311980706e-01
4.835904628330995880e-01,-6.621004566008492631e-01
4.838709677419354982e-01,-6.590563165705005666e-01
4.841514726507714084e-01,-6.590563165705005666e-01
4.844319775596073185e-01,-6.560121765401518701e-01
4.847124824684432287e-01,-6.529680365098030626e-01
4.849929873772791389e-01,-6.529680365098030626e-01
4.852734922861150491e-01,-6.499238964794543660e-01
4.855539971949509592e-01,-6.468797564491056695e-01
4.858345021037868139e-01,-6.468797564491056695e-01
4.861150070126227241e-01,-6.438356164187568620e-01
4.863955119214586342e-01,-6.438356164187568620e-01
4.866760168302945444e-01,-6.407914763884081655e-01
4.869565217391304546e-01,-6.377473363580594690e-01
4.872370266479663647e-01,-6.347031963277106614e-01
4.875175315568022749e-01,-6.347031963277106614e-01
4.877980364656381851e-01,-6.316590562973619649e-01
4.880785413744740953e-01,-6.286149162670132684e-01
4.883590462833100054e-01,-6.286149162670132684e-01
4.886395511921458601e-01,-6.255707762366644609e-01
4.889200561009817703e-01,-6.225266362063157644e-01
4.892005610098176804e-01,-6.225266362063157644e-01
4.894810659186535906e-01,-6.194824961759670678e-01
4.897615708274895008e-01,-6.164383561456182603e-01
4.900420757363254110e-01,-6.133942161152695638e-01
4.903225806451613211e-01,-6.103500760849208673e-01
4.906030855539972313e-01,-6.073059360545720597e-01
4.908835904628331415e-01,-6.073059360545720597e-01
4.911640953716690516e-01,-6.042617960242233632e-01
4.914446002805049063e-01,-6.012176559938746667e-01
4.917251051893408165e-01,-5.981735159635258592e-01
4.920056100981767266e-01,-5.951293759331771627e-01
4.922861150070126368e-01,-5.951293759331771627e-01
4.925666199158485470e-01,-5.920852359028284662e-01
4.928471248246844572e-01,-5.890410958724796586e-01
4.931276297335203673e-01,-5.859969558421309621e-01
4.934081346423562775e-01,-5.829528158117822656e-01
4.936886395511921877e-01,-5.799086757814334581e-01
4.939691444600280978e-01,-5.768645357510847616e-01
4.942496493688639525e-01,-5.738203957207360650e-01
4.945301542776998627e-01,-5.707762556903873685e-01
4.948106591865357728e-01,-5.677321156600385610e-01
4.950911640953716830e-01,-5.646879756296898645e-01
4.953716690042075932e-01,-5.616438355993411680e-01
4.956521739130435034e-01,-5.585996955689923604e-01
4.959326788218794135e-01,-5.555555555386436639e-01
4.962131837307153237e-01,-5.525114155082949674e-01
4.964936886395512339e-01,-5.494672754779461599e-01
4.967741935483871440e-01,-5.464231354475974634e-01
4.970546984572229987e-01,-5.433789954172487668e-01
4.973352033660589089e-01,-5.403348553868999593e-01
4.976157082748948191e-01,-5.403348553868999593e-01
4.978962131837307292e-01,-5.372907153565512628e-01
4.981767180925666394e-01,-5.342465753262025663e-01
4.984572230014025496e-01,-5.281582952655050622e-01
4.987377279102384597e-01,-5.251141552351563657e-01
4.990182328190743699e-01,-5.220700152048075582e-01
4.992987377279102801e-01,-5.190258751744588617e-01
4.995792426367461903e-01,-5.159817351441101652e-01
4.998597475455820449e-01,-5.129375951137613576e-01
5.001402524544179551e-01,-5.098934550834126611e-01
5.004207573632538653e-01,-5.038051750227151571e-01
5.007012622720897754e-01,-5.007610349923664605e-01
5.009817671809256856e-01,-4.977168949620177640e-01
5.012622720897615958e-01,-4.946727549316690120e-01
5.015427769985975059e-01,-4.916286149013202600e-01
5.018232819074334161e-01,-4.885844748709715635e-01
5.021037868162693263e-01,-4.855403348406228115e-01
5.023842917251052365e-01,-4.794520547799253629e-01
5.026647966339411466e-01,-4.764079147495766109e-01
5.029453015427770568e-01,-4.733637747192278589e-01
5.032258064516129670e-01,-4.672754946585304103e-01
5.035063113604488771e-01,-4.642313546281816583e-01
5.037868162692847873e-01,-4.581430745674842098e-01
5.040673211781206975e-01,-4.550989345371355133e-01
5.043478260869564966e-01,-4.490106544764380092e-01
5.046283309957924068e-01,-4.459665144460893127e-01
5.049088359046283170e-01,-4.429223744157405607e-01
5.051893408134642272e-01,-4.368340943550431121e-01
5.054698457223001373e-01,-4.337899543246943601e-01
5.057503506311360475e-01,-4.277016742639969116e-01
5.060308555399719577e-01,-4.246575342336481595e-01
5.063113604488078678e-01,-4.185692541729507110e-01
5.065918653576437780e-01,-4.155251141426019590e-01
5.068723702664796882e-01,-4.094368340819045105e-01
5.071528751753155984e-01,-4.063926940515557584e-01
5.074333800841515085e-01,-4.003044139908583099e-01
5.077138849929874187e-01,-3.942161339301608614e-01
5.079943899018233289e-01,-3.911719938998121093e-01
5.082748948106592390e-01,-3.881278538694633573e-01
5.085553997194951492e-01,-3.820395738087659088e-01
5.088359046283310594e-01,-3.759512937480684602e-01
5.091164095371669696e-01,-3.698630136873709562e-01
5.093969144460028797e-01,-3.637747336266735076e-01
5.096774193548387899e-01,-3.576864535659760591e-01
5.099579242636745890e-01,-3.546423135356273071e-01
5.102384291725104992e-01,-3.455098934445811065e-01
5.105189340813464094e-01,-3.424657534142324100e-01
5.107994389901823196e-01,-3.363774733535349060e-01
5.110799438990182297e-01,-3.333333333231862095e-01
5.113604488078541399e-01,-3.302891932928374574e-01
5.116409537166900501e-01,-3.302891932928374574e-01
5.119214586255259603e-01,-3.272450532624887054e-01
5.122019635343618704e-01,-3.272450532624887054e-01
5.124824684431977806e-01,-3.272450532624887054e-01
5.127629733520336908e-01,-3.272450532624887054e-01
5.130434782608696009e-01,-3.272450532624887054e-01
5.133239831697055111e-01,-3.272450532624887054e-01
5.136044880785414213e-01,-3.272450532624887054e-01
5.138849929873773315e-01,-3.272450532624887054e-01
5.141654978962132416e-01,-3.272450532624887054e-01
5.144460028050491518e-01,-3.272450532624887054e-01
5.147265077138850620e-01,-3.272450532624887054e-01
5.150070126227209721e-01,-3.272450532624887054e-01
5.152875175315568823e-01,-3.272450532624887054e-01
5.155680224403926815e-01,-3.302891932928374574e-01
5.158485273492285916e-01,-3.302891932928374574e-01
5.161290322580645018e-01,-3.333333333231862095e-01
5.164095371669004120e-01,-3.333333333231862095e-01
5.166900420757363221e-01,-3.333333333231862095e-01
5.169705469845722323e-01,-3.333333333231862095e-01
5.172510518934081425e-01,-3.363774733535349060e-01
5.175315568022440527e-01,-3.363774733535349060e-01
5.178120617110799628e-01,-3.363774733535349060e-01
5.180925666199158730e-01,-3.394216133838836580e-01
5.183730715287517832e-01,-3.424657534142324100e-01
5.186535764375876933e-01,-3.424657534142324100e-01
5.189340813464236035e-01,-3.424657534142324100e-01
5.192145862552595137e-01,-3.455098934445811065e-01
5.194950911640954239e-01,-3.455098934445811065e-01
5.197755960729313340e-01,-3.485540334749298585e-01
5.200561009817672442e-01,-3.485540334749298585e-01
5.203366058906031544e-01,-3.515981735052786106e-01
5.206171107994390646e-01,-3.515981735052786106e-01
5.208976157082749747e-01,-3.546423135356273071e-01
5.211781206171107739e-01,-3.576864535659760591e-01
5.214586255259466840e-01,-3.607305935963247556e-01
5.217391304347825942e-01,-3.637747336266735076e-01
5.220196353436185044e-01,-3.668188736570222597e-01
5.223001402524544146e-01,-3.698630136873709562e-01
5.225806451612903247e-01,-3.698630136873709562e-01
5.228611500701262349e-01,-3.729071537177197082e-01
5.231416549789621451e-01,-3.759512937480684602e-01
5.234221598877980552e-01,-3.789954337784171567e-01
5.237026647966339654e-01,-3.820395738087659088e-01
5.239831697054698756e-01,-3.820395738087659088e-01
5.242636746143057858e-01,-3.850837138391146608e-01
5.245441795231416959e-01,-3.911719938998121093e-01
5.248246844319776061e-01,-3.942161339301608614e-01
5.251051893408135163e-01,-3.972602739605095579e-01
5.253856942496494264e-01,-4.003044139908583099e-01
5.256661991584853366e-01,-4.033485540212070619e-01
5.259467040673212468e-01,-4.094368340819045105e-01
5.262272089761571570e-01,-4.124809741122532070e-01
5.265077138849930671e-01,-4.155251141426019590e-01
5.267882187938288663e-01,-4.185692541729507110e-01
5.270687237026647765e-01,-4.246575342336481595e-01
5.273492286115006866e-01,-4.277016742639969116e-01
5.276297335203365968e-01,-4.307458142943456081e-01
5.279102384291725070e-01,-4.368340943550431121e-01
5.281907433380084171e-01,-4.429223744157405607e-01
5.284712482468443273e-01,-4.459665144460893127e-01
5.287517531556802375e-01,-4.520547945067867612e-01
5.290322580645161477e-01,-4.550989345371355133e-01
5.293127629733520578e-01,-4.611872145978329618e-01
5.295932678821879680e-01,-4.672754946585304103e-01
5.298737727910238782e-01,-4.733637747192278589e-01
5.301542776998597883e-01,-4.794520547799253629e-01
5.304347826086956985e-01,-4.855403348406228115e-01
5.307152875175316087e-01,-4.916286149013202600e-01
5.309957924263675189e-01,-4.977168949620177640e-01
5.312762973352034290e-01,-5.038051750227151571e-01
5.315568022440393392e-01,-5.129375951137613576e-01
5.318373071528752494e-01,-5.190258751744588617e-01
5.321178120617111595e-01,-5.281582952655050622e-01
5.323983169705469587e-01,-5.342465753262025663e-01
5.326788218793828689e-01,-5.403348553868999593e-01
5.329593267882187790e-01,-5.464231354475974634e-01
5.332398316970546892e-01,-5.525114155082949674e-01
5.335203366058905994e-01,-5.555555555386436639e-01
5.338008415147265096e-01,-5.616438355993411680e-01
5.340813464235624197e-01,-5.646879756296898645e-01
5.343618513323983299e-01,-5.707762556903873685e-01
5.346423562412342401e-01,-5.768645357510847616e-01
5.349228611500701502e-01,-5.799086757814334581e-01
5.352033660589060604e-01,-5.859969558421309621e-01
5.354838709677419706e-01,-5.890410958724796586e-01
5.357643758765778808e-01,-5.920852359028284662e-01
5.360448807854137909e-01,-5.981735159635258592e-01
5.363253856942497011e-01,-6.012176559938746667e-01
5.366058906030856113e-01,-6.042617960242233632e-01
5.368863955119215214e-01,-6.073059360545720597e-01
5.371669004207574316e-01,-6.103500760849208673e-01
5.374474053295933418e-01,-6.133942161152695638e-01
5.377279102384292520e-01,-6.164383561456182603e-01
5.380084151472650511e-01,-6.194824961759670678e-01
5.382889200561009613e-01,-6.194824961759670678e-01
5.385694249649368714e-01,-6.225266362063157644e-01
5.388499298737727816e-01,-6.255707762366644609e-01
5.391304347826086918e-01,-6.286149162670132684e-01
5.394109396914446020e-01,-6.316590562973619649e-01
5.396914446002805121e-01,-6.347031963277106614e-01
5.399719495091164223e-01,-6.377473363580594690e-01
5.402524544179523325e-01,-6.407914763884081655e-01
5.405329593267882426e-01,-6.407914763884081655e-01
5.408134642356241528e-01,-6.438356164187568620e-01
5.410939691444600630e-01,-6.438356164187568620e-01
5.413744740532959732e-01,-6.468797564491056695e-01
5.416549789621318833e-01,-6.499238964794543660e-01
5.419354838709677935e-01,-6.499238964794543660e-01
5.422159887798037037e-01,-6.529680365098030626e-01
5.424964936886396139e-01,-6.560121765401518701e-01
5.427769985974755240e-01,-6.560121765401518701e-01
5.430575035063114342e-01,-6.590563165705005666e-01
5.433380084151473444e-01,-6.590563165705005666e-01
5.436185133239831435e-01,-6.621004566008492631e-01
5.438990182328190537e-01,-6.651445966311980706e-01
5.441795231416549639e-01,-6.651445966311980706e-01
5.444600280504908740e-01,-6.651445966311980706e-01
5.447405329593267842e-01,-6.651445966311980706e-01
5.450210378681626944e-01,-6.681887366615467672e-01
5.453015427769986045e-01,-6.712328766918954637e-01
5.455820476858345147e-01,-6.712328766918954637e-01
5.458625525946704249e-01,-6.712328766918954637e-01
5.461430575035063351e-01,-6.712328766918954637e-01
5.464235624123422452e-01,-6.742770167222441602e-01
5.467040673211781554e-01,-6.742770167222441602e-01
5.469845722300140656e-01,-6.742770167222441602e-01
5.472650771388499757e-01,-6.773211567525929677e-01
5.475455820476858859e-01,-6.773211567525929677e-01
5.478260869565217961e-01,-6.773211567525929677e-01
5.481065918653577063e-01,-6.773211567525929677e-01
5.483870967741936164e-01,-6.773211567525929677e-01
5.486676016830295266e-01,-6.803652967829416642e-01
5.489481065918654368e-01,-6.803652967829416642e-01
5.492286115007012359e-01,-6.803652967829416642e-01
5.495091164095371461e-01,-6.803652967829416642e-01
5.497896213183730563e-01,-6.803652967829416642e-01
5.500701262272089664e-01,-6.803652967829416642e-01
5.503506311360448766e-01,-6.803652967829416642e-01
5.506311360448807868e-01,-6.803652967829416642e-01
5.509116409537166970e-01,-6.803652967829416642e-01
5.511921458625526071e-01,-6.803652967829416642e-01
5.514726507713885173e-01,-6.803652967829416642e-01
5.517531556802244275e-01,-6.803652967829416642e-01
5.520336605890603376e-01,-6.803652967829416642e-01
5.523141654978962478e-01,-6.803652967829416642e-01
5.525946704067321580e-01,-6.803652967829416642e-01
5.528751753155680682e-01,-6.803652967829416642e-01
5.531556802244039783e-01,-6.803652967829416642e-01
5.534361851332398885e-01,-6.773211567525929677e-01
5.537166900420757987e-01,-6.773211567525929677e-01
5.539971949509117088e-01,-6.773211567525929677e-01
5.542776998597476190e-01,-6.742770167222441602e-01
5.545582047685835292e-01,-6.742770167222441602e-01
5.548387096774193283e-01,-6.712328766918954637e-01
5.551192145862552385e-01,-6.712328766918954637e-01
5.553997194950911487e-01,-6.712328766918954637e-01
5.556802244039270589e-01,-6.681887366615467672e-01
5.559607293127629690e-01,-6.681887366615467672e-01
5.562412342215988792e-01,-6.651445966311980706e-01
5.565217391304347894e-01,-6.651445966311980706e-01
5.568022440392706995e-01,-6.621004566008492631e-01
5.570827489481066097e-01,-6.621004566008492631e-01
5.573632538569425199e-01,-6.590563165705005666e-01
5.576437587657784301e-01,-6.560121765401518701e-01
5.579242636746143402e-01,-6.529680365098030626e-01
5.582047685834502504e-01,-6.499238964794543660e-01
5.584852734922861606e-01,-6.468797564491056695e-01
5.587657784011220707e-01,-6.438356164187568620e-01
5.590462833099579809e-01,-6.407914763884081655e-01
5.593267882187938911e-01,-6.377473363580594690e-01
5.596072931276298013e-01,-6.316590562973619649e-01
5.598877980364657114e-01,-6.286149162670132684e-01
5.601683029453016216e-01,-6.225266362063157644e-01
5.604488078541374207e-01,-6.194824961759670678e-01
5.607293127629733309e-01,-6.164383561456182603e-01
5.610098176718092411e-01,-6.103500760849208673e-01
5.612903225806451513e-01,-6.073059360545720597e-01
5.615708274894810614e-01,-6.042617960242233632e-01
5.618513323983169716e-01,-6.012176559938746667e-01
5.621318373071528818e-01,-5.951293759331771627e-01
5.624123422159887919e-01,-5.920852359028284662e-01
5.626928471248247021e-01,-5.890410958724796586e-01
5.629733520336606123e-01,-5.859969558421309621e-01
5.632538569424965225e-01,-5.829528158117822656e-01
5.635343618513324326e-01,-5.799086757814334581e-01
5.638148667601683428e-01,-5.768645357510847616e-01
5.640953716690042530e-01,-5.738203957207360650e-01
5.643758765778401632e-01,-5.707762556903873685e-01
5.646563814866760733e-01,-5.677321156600385610e-01
5.649368863955119835e-01,-5.646879756296898645e-01
5.652173913043478937e-01,-5.616438355993411680e-01
5.654978962131838038e-01,-5.585996955689923604e-01
5.657784011220197140e-01,-5.555555555386436639e-01
5.660589060308555132e-01,-5.525114155082949674e-01
5.663394109396914233e-01,-5.464231354475974634e-01
5.666199158485273335e-01,-5.464231354475974634e-01
5.669004207573632437e-01,-5.433789954172487668e-01
5.671809256661991538e-01,-5.403348553868999593e-01
5.674614305750350640e-01,-5.372907153565512628e-01
5.677419354838709742e-01,-5.342465753262025663e-01
5.680224403927068844e-01,-5.312024352958537587e-01
5.683029453015427945e-01,-5.281582952655050622e-01
5.685834502103787047e-01,-5.251141552351563657e-01
5.688639551192146149e-01,-5.251141552351563657e-01
5.691444600280505250e-01,-5.220700152048075582e-01
5.694249649368864352e-01,-5.190258751744588617e-01
5.697054698457223454e-01,-5.190258751744588617e-01
5.699859747545582556e-01,-5.159817351441101652e-01
5.702664796633941657e-01,-5.129375951137613576e-01
5.705469845722300759e-01,-5.098934550834126611e-01
5.708274894810659861e-01,-5.098934550834126611e-01
5.711079943899018962e-01,-5.068493150530639646e-01
5.713884992987378064e-01,-5.068493150530639646e-01
5.716690042075736056e-01,-5.038051750227151571e-01
5.719495091164095157e-01,-5.007610349923664605e-01
5.722300140252454259e-01,-5.007610349923664605e-01
5.725105189340813361e-01,-4.977168949620177640e-01
5.727910238429172463e-01,-4.946727549316690120e-01
5.730715287517531564e-01,-4.946727549316690120e-01
5.733520336605890666e-01,-4.916286149013202600e-01
5.736325385694249768e-01,-4.916286149013202600e-01
5.739130434782608869e-01,-4.885844748709715635e-01
5.741935483870967971e-01,-4.885844748709715635e-01
5.744740532959327073e-01,-4.855403348406228115e-01
5.747545582047686175e-01,-4.855403348406228115e-01
5.750350631136045276e-01,-4.855403348406228115e-01
5.753155680224404378e-01,-4.824961948102740594e-01
5.755960729312763480e-01,-4.794520547799253629e-01
5.758765778401122581e-01,-4.794520547799253629e-01
5.761570827489481683e-01,-4.794520547799253629e-01
5.764375876577840785e-01,-4.764079147495766109e-01
5.767180925666199887e-01,-4.764079147495766109e-01
5.769985974754558988e-01,-4.733637747192278589e-01
5.772791023842918090e-01,-4.733637747192278589e-01
5.775596072931276082e-01,-4.733637747192278589e-01
5.778401122019635183e-01,-4.733637747192278589e-01
5.781206171107994285e-01,-4.703196346888791624e-01
5.784011220196353387e-01,-4.703196346888791624e-01
5.786816269284712488e-01,-4.672754946585304103e-01
5.789621318373071590e-01,-4.672754946585304103e-01
5.792426367461430692e-01,-4.672754946585304103e-01
5.795231416549789794e-01,-4.672754946585304103e-01
5.798036465638148895e-01,-4.642313546281816583e-01
5.800841514726507997e-01,-4.642313546281816583e-01
5.803646563814867099e-01,-4.642313546281816583e-01
5.806451612903226200e-01,-4.642313546281816583e-01
5.809256661991585302e-01,-4.642313546281816583e-01
5.812061711079944404e-01,-4.642313546281816583e-01
5.814866760168303506e-01,-4.611872145978329618e-01
5.817671809256662607e-01,-4.611872145978329618e-01
5.820476858345021709e-01,-4.611872145978329618e-01
5.823281907433380811e-01,-4.611872145978329618e-01
5.826086956521739912e-01,-4.611872145978329618e-01
5.828892005610099014e-01,-4.611872145978329618e-01
5.831697054698457006e-01,-4.611872145978329618e-01
5.834502103786816107e-01,-4.611872145978329618e-01
5.837307152875175209e-01,-4.611872145978329618e-01
5.840112201963534311e-01,-4.611872145978329618e-01
5.842917251051893412e-01,-4.611872145978329618e-01
5.845722300140252514e-01,-4.611872145978329618e-01
5.848527349228611616e-01,-4.611872145978329618e-01
5.851332398316970718e-01,-4.611872145978329618e-01
5.854137447405329819e-01,-4.611872145978329618e-01
5.856942496493688921e-01,-4.611872145978329618e-01
5.859747545582048023e-01,-4.611872145978329618e-01
5.862552594670407125e-01,-4.611872145978329618e-01
5.865357643758766226e-01,-4.611872145978329618e-01
5.868162692847125328e-01,-4.611872145978329618e-01
5.870967741935484430e-01,-4.611872145978329618e-01
5.873772791023843531e-01,-4.611872145978329618e-01
5.876577840112202633e-01,-4.611872145978329618e-01
5.879382889200561735e-01,-4.611872145978329618e-01
5.882187938288920837e-01,-4.611872145978329618e-01
5.884992987377279938e-01,-4.611872145978329618e-01
5.887798036465637930e-01,-4.611872145978329618e-01
5.890603085553997031e-01,-4.611872145978329618e-01
5.893408134642356133e-01,-4.611872145978329618e-01
5.896213183730715235e-01,-4.611872145978329618e-01
5.899018232819074337e-01,-4.611872145978329618e-01
5.901823281907433438e-01,-4.611872145978329618e-01
5.904628330995792540e-01,-4.611872145978329618e-01
5.907433380084151642e-01,-4.611872145978329618e-01
5.910238429172510743e-01,-4.611872145978329618e-01
5.913043478260869845e-01,-4.611872145978329618e-01
5.915848527349228947e-01,-4.611872145978329618e-01
5.918653576437588049e-01,-4.611872145978329618e-01
5.921458625525947150e-01,-4.611872145978329618e-01
5.924263674614306252e-01,-4.611872145978329618e-01
5.927068723702665354e-01,-4.611872145978329618e-01
5.929873772791024455e-01,-4.611872145978329618e-01
5.932678821879383557e-01,-4.611872145978329618e-01
5.935483870967742659e-01,-4.611872145978329618e-01
5.938288920056101761e-01,-4.611872145978329618e-01
5.941093969144460862e-01,-4.611872145978329618e-01
5.943899018232818854e-01,-4.611872145978329618e-01
5.946704067321177956e-01,-4.611872145978329618e-01
5.949509116409537057e-01,-4.611872145978329618e-01
5.952314165497896159e-01,-4.611872145978329618e-01
5.955119214586255261e-01,-4.611872145978329618e-01
5.957924263674614362e-01,-4.611872145978329618e-01
5.960729312762973464e-01,-4.611872145978329618e-01
5.963534361851332566e-01,-4.611872145978329618e-01
5.966339410939691668e-01,-4.611872145978329618e-01
5.969144460028050769e-01,-4.611872145978329618e-01
5.971949509116409871e-01,-4.611872145978329618e-01
5.974754558204768973e-01,-4.611872145978329618e-01
5.977559607293128074e-01,-4.611872145978329618e-01
5.980364656381487176e-01,-4.611872145978329618e-01
5.983169705469846278e-01,-4.611872145978329618e-01
5.985974754558205380e-01,-4.611872145978329618e-01
5.988779803646564481e-01,-4.611872145978329618e-01
5.991584852734923583e-01,-4.611872145978329618e-01
5.994389901823282685e-01,-4.611872145978329618e-01
5.997194950911641786e-01,-4.611872145978329618e-01
5.999999999999999778e-01,-4.611872145978329618e-01
6.002805049088358880e-01,-4.611872145978329618e-01
6.005610098176717981e-01,-4.611872145978329618e-01
6.008415147265077083e-01,-4.611872145978329618e-01
6.011220196353436185e-01,-4.611872145978329618e-01
6.014025245441795287e-01,-4.611872145978329618e-01
6.016830294530154388e-01,-4.611872145978329618e-01
6.019635343618513490e-01,-4.611872145978329618e-01
6.022440392706872592e-01,-4.611872145978329618e-01
6.025245441795231693e-01,-4.611872145978329618e-01
6.028050490883590795e-01,-4.611872145978329618e-01
6.030855539971949897e-01,-4.611872145978329618e-01
6.033660589060308999e-01,-4.611872145978329618e-01
6.036465638148668100e-01,-4.581430745674842098e-01
6.039270687237027202e-01,-4.581430745674842098e-01
6.042075736325386304e-01,-4.520547945067867612e-01
6.044880785413745405e-01,-4.490106544764380092e-01
6.047685834502104507e-01,-4.429223744157405607e-01
6.050490883590463609e-01,-4.368340943550431121e-01
6.053295932678822711e-01,-4.337899543246943601e-01
6.056100981767180702e-01,-4.277016742639969116e-01
6.058906030855539804e-01,-4.246575342336481595e-01
6.061711079943898905e-01,-4.185692541729507110e-01
6.064516129032258007e-01,-4.124809741122532070e-01
6.067321178120617109e-01,-4.094368340819045105e-01
6.070126227208976211e-01,-4.033485540212070619e-01
6.072931276297335312e-01,-3.972602739605095579e-01
6.075736325385694414e-01,-3.942161339301608614e-01
6.078541374474053516e-01,-3.881278538694633573e-01
6.081346423562412618e-01,-3.850837138391146608e-01
6.084151472650771719e-01,-3.789954337784171567e-01
6.086956521739130821e-01,-3.729071537177197082e-01
6.089761570827489923e-01,-3.698630136873709562e-01
6.092566619915849024e-01,-3.637747336266735076e-01
6.095371669004208126e-01,-3.576864535659760591e-01
6.098176718092567228e-01,-3.546423135356273071e-01
6.100981767180926330e-01,-3.485540334749298585e-01
6.103786816269285431e-01,-3.455098934445811065e-01
6.106591865357644533e-01,-3.394216133838836580e-01
6.109396914446003635e-01,-3.363774733535349060e-01
6.112201963534361626e-01,-3.302891932928374574e-01
6.115007012622720728e-01,-3.272450532624887054e-01
6.117812061711079830e-01,-3.242009132321400089e-01
6.120617110799438931e-01,-3.242009132321400089e-01
6.123422159887798033e-01,-3.211567732017912569e-01
6.126227208976157135e-01,-3.181126331714425048e-01
6.129032258064516236e-01,-3.150684931410938083e-01
6.131837307152875338e-01,-3.150684931410938083e-01
6.134642356241234440e-01,-3.120243531107450563e-01
6.137447405329593542e-01,-3.120243531107450563e-01
6.140252454417952643e-01,-3.120243531107450563e-01
6.143057503506311745e-01,-3.120243531107450563e-01
6.145862552594670847e-01,-3.120243531107450563e-01
6.148667601683029948e-01,-3.089802130803963598e-01
6.151472650771389050e-01,-3.120243531107450563e-01
6.154277699859748152e-01,-3.089802130803963598e-01
6.157082748948107254e-01,-3.089802130803963598e-01
6.159887798036466355e-01,-3.120243531107450563e-01
6.162692847124825457e-01,-3.120243531107450563e-01
6.165497896213184559e-01,-3.120243531107450563e-01
6.168302945301542550e-01,-3.120243531107450563e-01
6.171107994389901652e-01,-3.120243531107450563e-01
6.173913043478260754e-01,-3.120243531107450563e-01
6.176718092566619855e-01,-3.120243531107450563e-01
6.179523141654978957e-01,-3.150684931410938083e-01
6.182328190743338059e-01,-3.150684931410938083e-01
6.185133239831697161e-01,-3.181126331714425048e-01
6.187938288920056262e-01,-3.181126331714425048e-01
6.190743338008415364e-01,-3.211567732017912569e-01
6.193548387096774466e-01,-3.242009132321400089e-01
6.196353436185133567e-01,-3.272450532624887054e-01
6.199158485273492669e-01,-3.302891932928374574e-01
6.201963534361851771e-01,-3.333333333231862095e-01
6.204768583450210873e-01,-3.363774733535349060e-01
6.207573632538569974e-01,-3.424657534142324100e-01
6.210378681626929076e-01,-3.455098934445811065e-01
6.213183730715288178e-01,-3.515981735052786106e-01
6.215988779803647279e-01,-3.546423135356273071e-01
6.218793828892006381e-01,-3.607305935963247556e-01
6.221598877980365483e-01,-3.668188736570222597e-01
6.224403927068723474e-01,-3.729071537177197082e-01
6.227208976157082576e-01,-3.759512937480684602e-01
6.230014025245441678e-01,-3.820395738087659088e-01
6.232819074333800780e-01,-3.850837138391146608e-01
6.235624123422159881e-01,-3.911719938998121093e-01
6.238429172510518983e-01,-3.972602739605095579e-01
6.241234221598878085e-01,-4.003044139908583099e-01
6.244039270687237186e-01,-4.063926940515557584e-01
6.246844319775596288e-01,-4.094368340819045105e-01
6.249649368863955390e-01,-4.155251141426019590e-01
6.252454417952314492e-01,-4.216133942032994075e-01
6.255259467040673593e-01,-4.246575342336481595e-01
6.258064516129032695e-01,-4.307458142943456081e-01
6.260869565217391797e-01,-4.337899543246943601e-01
6.263674614305750898e-01,-4.398782343853918086e-01
6.266479663394110000e-01,-4.459665144460893127e-01
6.269284712482469102e-01,-4.520547945067867612e-01
6.272089761570828204e-01,-4.550989345371355133e-01
6.274894810659187305e-01,-4.581430745674842098e-01
6.277699859747546407e-01,-4.611872145978329618e-01
6.280504908835904399e-01,-4.611872145978329618e-01
6.283309957924263500e-01,-4.611872145978329618e-01
6.286115007012622602e-01,-4.611872145978329618e-01
6.288920056100981704e-01,-4.611872145978329618e-01
6.291725105189340805e-01,-4.611872145978329618e-01
6.294530154277699907e-01,-4.611872145978329618e-01
6.297335203366059009e-01,-4.611872145978329618e-01
6.300140252454418111e-01,-4.611872145978329618e-01
6.302945301542777212e-01,-4.611872145978329618e-01
6.305750350631136314e-01,-4.611872145978329618e-01
6.308555399719495416e-01,-4.611872145978329618e-01
6.311360448807854517e-01,-4.611872145978329618e-01
6.314165497896213619e-01,-4.611872145978329618e-01
6.316970546984572721e-01,-4.611872145978329618e-01
6.319775596072931823e-01,-4.611872145978329618e-01
6.322580645161290924e-01,-4.611872145978329618e-01
6.325385694249650026e-01,-4.611872145978329618e-01
6.328190743338009128e-01,-4.611872145978329618e-01
6.330995792426368229e-01,-4.611872145978329618e-01
6.333800841514727331e-01,-4.611872145978329618e-01
6.336605890603085323e-01,-4.611872145978329618e-01
6.339410939691444424e-01,-4.611872145978329618e-01
6.342215988779803526e-01,-4.611872145978329618e-01
6.345021037868162628e-01,-4.611872145978329618e-01
6.347826086956521729e-01,-4.611872145978329618e-01
6.350631136044880831e-01,-4.611872145978329618e-01
6.353436185133239933e-01,-4.611872145978329618e-01
6.356241234221599035e-01,-4.611872145978329618e-01
6.359046283309958136e-01,-4.611872145978329618e-01
6.361851332398317238e-01,-4.642313546281816583e-01
6.364656381486676340e-01,-4.642313546281816583e-01
6.367461430575035441e-01,-4.642313546281816583e-01
6.370266479663394543e-01,-4.642313546281816583e-01
6.373071528751753645e-01,-4.672754946585304103e-01
6.375876577840112747e-01,-4.672754946585304103e-01
6.378681626928471848e-01,-4.672754946585304103e-01
6.381486676016830950e-01,-4.703196346888791624e-01
6.384291725105190052e-01,-4.733637747192278589e-01
6.387096774193549154e-01,-4.794520547799253629e-01
6.389901823281908255e-01,-4.824961948102740594e-01
6.392706872370266247e-01,-4.885844748709715635e-01
6.395511921458625348e-01,-4.916286149013202600e-01
6.398316970546984450e-01,-4.946727549316690120e-01
6.401122019635343552e-01,-4.977168949620177640e-01
6.403927068723702654e-01,-5.038051750227151571e-01
6.406732117812061755e-01,-5.068493150530639646e-01
6.409537166900420857e-01,-5.038051750227151571e-01
6.412342215988779959e-01,-5.038051750227151571e-01
6.415147265077139060e-01,-4.977168949620177640e-01
6.417952314165498162e-01,-4.398782343853918086e-01
6.420757363253857264e-01,-3.729071537177197082e-01
6.423562412342216366e-01,-3.424657534142324100e-01
6.426367461430575467e-01,-2.511415525037704044e-01
6.429172510518934569e-01,-2.237442922306318305e-01
6.431977559607293671e-01,-1.476407914719135295e-01
6.434782608695652772e-01,-8.980213089528760184e-02
6.437587657784011874e-01,-5.936073059180028283e-02
6.440392706872370976e-01,3.196347031866168809e-02
6.443197755960730078e-01,5.327245053110281348e-02
6.446002805049089179e-01,1.385083713808673289e-01
6.448807854137447171e-01,1.689497716843546549e-01
6.451612903225806273e-01,2.298325722913292790e-01
6.454417952314165374e-01,2.998477929893501592e-01
6.457223001402524476e-01,3.333333333231862095e-01
6.460028050490883578e-01,4.185692541729507110e-01
6.462833099579242679e-01,4.490106544764380092e-01
6.465638148667601781e-01,5.159817351441101652e-01
6.468443197755960883e-01,5.738203957207360650e-01
6.471248246844319985e-01,6.103500760849208673e-01
6.474053295932679086e-01,6.955859969346853688e-01
6.476858345021038188e-01,7.290715372685213636e-01
6.479663394109397290e-01,8.112633180879371686e-01
6.482468443197756391e-01,8.538812785128194749e-01
6.485273492286115493e-01,8.964992389377016702e-01
6.488078541374474595e-01,9.756468797267686677e-01
6.490883590462833697e-01,9.817351597874661717e-01
6.493688639551192798e-01,9.878234398481636758e-01
6.496493688639551900e-01,9.908675798785123723e-01
6.499298737727911002e-01,9.939117199088610688e-01
6.502103786816270103e-01,9.939117199088610688e-01
6.504908835904629205e-01,9.969558599392098763e-01
6.507713884992987197e-01,9.969558599392098763e-01
6.510518934081346298e-01,9.969558599392098763e-01
6.513323983169705400e-01,9.969558599392098763e-01
6.516129032258064502e-01,9.969558599392098763e-01
6.518934081346423604e-01,9.969558599392098763e-01
6.521739130434782705e-01,9.969558599392098763e-01
6.524544179523141807e-01,9.969558599392098763e-01
6.527349228611500909e-01,9.939117199088610688e-01
6.530154277699860010e-01,9.908675798785123723e-01
6.532959326788219112e-01,9.878234398481636758e-01
6.535764375876578214e-01,9.847792998178148682e-01
6.538569424964937316e-01,9.786910197571174752e-01
6.541374474053296417e-01,8.477929984521219708e-01
6.544179523141655519e-01,7.899543378754960710e-01
6.546984572230014621e-01,6.133942161152695638e-01
6.549789621318373722e-01,5.007610349923664605e-01
6.552594670406732824e-01,4.246575342336481595e-01
6.555399719495091926e-01,1.963470319574932288e-01
6.558204768583451028e-01,1.445966514415647775e-01
6.561009817671810129e-01,-7.153729071319521460e-02
6.563814866760168121e-01,-1.445966514415647775e-01
6.566619915848527222e-01,-2.633181126251653570e-01
6.569424964936886324e-01,-4.398782343853918086e-01
6.572230014025245426e-01,-5.007610349923664605e-01
6.575035063113604528e-01,-6.986301369650340654e-01
6.577840112201963629e-01,-8.264840182396808732e-01
6.580645161290322731e-01,-8.264840182396808732e-01
6.583450210378681833e-01,-8.234398782093320657e-01
6.586255259467040934e-01,-8.143074581182858651e-01
6.589060308555400036e-01,-7.960426179361934640e-01
6.591865357643759138e-01,-7.869101978451472634e-01
6.594670406732118240e-01,-7.747336377237523664e-01
6.597475455820477341e-01,-7.686453576630548623e-01
6.600280504908836443e-01,-7.595129375720087728e-01
6.603085553997195545e-01,-7.503805174809625722e-01
