time,value
0.000000000000000000e+00,-7.520661155781709351e-01
9.115770282588878549e-04,-7.520661155781709351e-01
1.823154056517775710e-03,-7.520661155781709351e-01
2.734731084776663781e-03,-7.520661155781709351e-01
3.646308113035551420e-03,-7.520661155781709351e-01
4.557885141294439058e-03,-7.520661155781709351e-01
5.469462169553327563e-03,2.479338842565398382e-02
6.381039197812215201e-03,-8.512396692807868703e-01
7.292616226071102839e-03,3.553719007677071384e-01
8.204193254329991344e-03,-9.338842973663000757e-01
9.115770282588878115e-03,3.719008263848097573e-01
1.002734731084776662e-02,3.553719007677071384e-01
1.093892433910665513e-02,-9.504132229834028056e-01
1.185050136736554190e-02,3.553719007677071384e-01
1.276207839562443040e-02,-9.504132229834028056e-01
1.367365542388331717e-02,3.057851239163991708e-01
1.458523245214220568e-02,-8.842975205149921081e-01
1.549680948040109418e-02,1.735537189795778867e-01
1.640838650865998269e-02,-6.033057850242469211e-01
1.731996353691886772e-02,1.404958677453725935e-01
1.823154056517775623e-02,-4.545454544703230737e-01
1.914311759343664474e-02,1.239669421282699191e-01
2.005469462169553324e-02,4.132231404275664433e-02
2.096627164995442175e-02,4.132231404275664433e-02
2.187784867821331025e-02,4.132231404275664433e-02
2.278942570647219529e-02,5.785123965985929789e-02
2.370100273473108379e-02,5.785123965985929789e-02
2.461257976298997230e-02,5.785123965985929789e-02
2.552415679124886080e-02,5.785123965985929789e-02
2.643573381950774931e-02,5.785123965985929789e-02
2.734731084776663435e-02,7.438016527696195146e-02
2.825888787602552285e-02,1.900826445966805611e-01
2.917046490428441136e-02,2.066115702137832078e-01
3.008204193254329986e-02,2.066115702137832078e-01
3.099361896080218837e-02,2.066115702137832078e-01
3.190519598906107340e-02,1.239669421282699191e-01
3.281677301731996538e-02,2.231404958308858544e-01
3.372835004557885041e-02,2.231404958308858544e-01
3.463992707383773545e-02,1.404958677453725935e-01
3.555150410209662742e-02,1.404958677453725935e-01
3.646308113035551246e-02,1.570247933624752401e-01
3.737465815861440444e-02,1.570247933624752401e-01
3.828623518687328947e-02,1.570247933624752401e-01
3.919781221513217451e-02,1.570247933624752401e-01
4.010938924339106648e-02,1.570247933624752401e-01
4.102096627164995152e-02,1.570247933624752401e-01
4.193254329990884349e-02,1.570247933624752401e-01
4.284412032816772853e-02,1.570247933624752401e-01
4.375569735642662050e-02,1.570247933624752401e-01
4.466727438468550554e-02,4.132231404275664433e-02
4.557885141294439058e-02,2.479338842565398382e-02
4.649042844120328255e-02,2.479338842565398382e-02
4.740200546946216759e-02,2.479338842565398382e-02
4.831358249772105956e-02,2.479338842565398382e-02
4.922515952597994460e-02,1.239669421282699191e-01
5.013673655423882963e-02,1.239669421282699191e-01
5.104831358249772161e-02,1.074380165111672725e-01
5.195989061075660664e-02,1.074380165111672725e-01
5.287146763901549862e-02,-8.264462808551328518e-03
5.378304466727438365e-02,-8.264462808551328518e-03
5.469462169553326869e-02,-8.264462808551328518e-03
5.560619872379216067e-02,8.264462808551328518e-03
5.651777575205104570e-02,1.239669421282699191e-01
5.742935278030993768e-02,1.239669421282699191e-01
5.834092980856882271e-02,1.239669421282699191e-01
5.925250683682770775e-02,1.239669421282699191e-01
6.016408386508659972e-02,2.396694214479885288e-01
6.107566089334548476e-02,2.727272726821938220e-01
6.198723792160437673e-02,2.892561982992964964e-01
6.289881494986326871e-02,2.892561982992964964e-01
6.381039197812214681e-02,3.057851239163991708e-01
6.472196900638103878e-02,3.057851239163991708e-01
6.563354603463993076e-02,3.223140495335017897e-01
6.654512306289880885e-02,3.223140495335017897e-01
6.745670009115770083e-02,3.223140495335017897e-01
6.836827711941659280e-02,3.223140495335017897e-01
6.927985414767547090e-02,3.223140495335017897e-01
7.019143117593436287e-02,3.223140495335017897e-01
7.110300820419325485e-02,3.057851239163991708e-01
7.201458523245214682e-02,2.479338842565398382e-02
7.292616226071102492e-02,2.479338842565398382e-02
7.383773928896991690e-02,2.479338842565398382e-02
7.474931631722880887e-02,8.264462808551328518e-03
7.566089334548768697e-02,-5.371900825558363346e-01
7.657247037374657894e-02,-8.677685948978894892e-01
7.748404740200547092e-02,-9.173553717491974568e-01
7.839562443026434901e-02,-9.504132229834028056e-01
7.930720145852324099e-02,-9.669421486005054245e-01
8.021877848678213296e-02,-9.999999998347107732e-01
8.113035551504102494e-02,-9.999999998347107732e-01
8.204193254329990304e-02,-9.999999998347107732e-01
8.295350957155879501e-02,-9.999999998347107732e-01
8.386508659981768699e-02,-9.834710742176080434e-01
8.477666362807656508e-02,-9.669421486005054245e-01
8.568824065633545706e-02,-8.677685948978894892e-01
8.659981768459434903e-02,-8.512396692807868703e-01
8.751139471285324101e-02,2.066115702137832078e-01
8.842297174111211910e-02,1.900826445966805611e-01
8.933454876937101108e-02,1.735537189795778867e-01
9.024612579762990305e-02,9.090909089406461197e-02
9.115770282588878115e-02,1.074380165111672725e-01
9.206927985414767313e-02,1.074380165111672725e-01
9.298085688240656510e-02,1.074380165111672725e-01
9.389243391066544320e-02,1.074380165111672725e-01
9.480401093892433517e-02,1.074380165111672725e-01
9.571558796718322715e-02,1.074380165111672725e-01
9.662716499544211912e-02,1.074380165111672725e-01
9.753874202370099722e-02,1.239669421282699191e-01
9.845031905195988919e-02,1.239669421282699191e-01
9.936189608021878117e-02,1.239669421282699191e-01
1.002734731084776593e-01,1.239669421282699191e-01
1.011850501367365512e-01,1.239669421282699191e-01
1.020966271649954432e-01,1.239669421282699191e-01
1.030082041932543213e-01,1.239669421282699191e-01
1.039197812215132133e-01,1.239669421282699191e-01
1.048313582497721053e-01,1.239669421282699191e-01
1.057429352780309972e-01,1.239669421282699191e-01
1.066545123062898753e-01,1.239669421282699191e-01
1.075660893345487673e-01,1.239669421282699191e-01
1.084776663628076593e-01,1.239669421282699191e-01
1.093892433910665374e-01,1.239669421282699191e-01
1.103008204193254294e-01,1.239669421282699191e-01
1.112123974475843213e-01,1.239669421282699191e-01
1.121239744758431994e-01,1.239669421282699191e-01
1.130355515041020914e-01,1.074380165111672725e-01
1.139471285323609834e-01,1.074380165111672725e-01
1.148587055606198754e-01,1.074380165111672725e-01
1.157702825888787534e-01,9.090909089406461197e-02
1.166818596171376454e-01,-4.132231404275664433e-02
1.175934366453965374e-01,-4.132231404275664433e-02
1.185050136736554155e-01,-5.785123965985929789e-02
1.194165907019143075e-01,-5.785123965985929789e-02
1.203281677301731994e-01,-5.785123965985929789e-02
1.212397447584320914e-01,-5.785123965985929789e-02
1.221513217866909695e-01,-7.438016527696195146e-02
1.230628988149498615e-01,-7.438016527696195146e-02
1.239744758432087535e-01,-7.438016527696195146e-02
1.248860528714676316e-01,-7.438016527696195146e-02
1.257976298997265374e-01,-7.438016527696195146e-02
1.267092069279854016e-01,-5.785123965985929789e-02
1.276207839562442936e-01,5.785123965985929789e-02
1.285323609845031856e-01,5.785123965985929789e-02
1.294439380127620776e-01,5.785123965985929789e-02
1.303555150410209695e-01,5.785123965985929789e-02
1.312670920692798615e-01,7.438016527696195146e-02
1.321786690975387257e-01,7.438016527696195146e-02
1.330902461257976177e-01,1.735537189795778867e-01
1.340018231540565097e-01,1.900826445966805611e-01
1.349134001823154017e-01,2.231404958308858544e-01
1.358249772105742936e-01,2.396694214479885288e-01
1.367365542388331856e-01,2.561983470650912031e-01
1.376481312670920776e-01,2.561983470650912031e-01
1.385597082953509418e-01,2.561983470650912031e-01
1.394712853236098338e-01,2.727272726821938220e-01
1.403828623518687257e-01,2.727272726821938220e-01
1.412944393801276177e-01,2.727272726821938220e-01
1.422060164083865097e-01,2.727272726821938220e-01
1.431175934366454017e-01,2.396694214479885288e-01
1.440291704649042936e-01,2.066115702137832078e-01
1.449407474931631579e-01,-2.479338842565398382e-02
1.458523245214220498e-01,-2.479338842565398382e-02
1.467639015496809418e-01,-2.479338842565398382e-02
1.476754785779398338e-01,-7.190082643439655863e-01
1.485870556061987258e-01,-7.685950411952735539e-01
1.494986326344576177e-01,-7.851239668123761728e-01
1.504102096627165097e-01,-8.677685948978894892e-01
1.513217866909753739e-01,-9.008264461320948380e-01
1.522333637192342659e-01,-9.008264461320948380e-01
1.531449407474931579e-01,-9.008264461320948380e-01
1.540565177757520499e-01,-9.008264461320948380e-01
1.549680948040109418e-01,-9.008264461320948380e-01
1.558796718322698338e-01,-8.842975205149921081e-01
1.567912488605286980e-01,-8.512396692807868703e-01
1.577028258887875900e-01,-7.520661155781709351e-01
1.586144029170464820e-01,-6.198347106413496510e-01
1.595259799453053740e-01,2.396694214479885288e-01
1.604375569735642659e-01,2.231404958308858544e-01
1.613491340018231579e-01,2.231404958308858544e-01
1.622607110300820499e-01,2.231404958308858544e-01
1.631722880583409141e-01,1.404958677453725935e-01
1.640838650865998061e-01,1.404958677453725935e-01
1.649954421148586980e-01,1.404958677453725935e-01
1.659070191431175900e-01,1.570247933624752401e-01
1.668185961713764820e-01,2.561983470650912031e-01
1.677301731996353740e-01,2.561983470650912031e-01
1.686417502278942659e-01,1.735537189795778867e-01
1.695533272561531302e-01,1.735537189795778867e-01
1.704649042844120221e-01,1.735537189795778867e-01
1.713764813126709141e-01,1.735537189795778867e-01
1.722880583409298061e-01,1.900826445966805611e-01
1.731996353691886981e-01,2.066115702137832078e-01
1.741112123974475900e-01,3.057851239163991708e-01
1.750227894257064820e-01,2.231404958308858544e-01
1.759343664539653462e-01,3.223140495335017897e-01
1.768459434822242382e-01,2.396694214479885288e-01
1.777575205104831302e-01,2.396694214479885288e-01
1.786690975387420222e-01,2.396694214479885288e-01
1.795806745670009141e-01,2.561983470650912031e-01
1.804922515952598061e-01,2.561983470650912031e-01
1.814038286235186703e-01,2.561983470650912031e-01
1.823154056517775623e-01,2.561983470650912031e-01
1.832269826800364543e-01,2.561983470650912031e-01
1.841385597082953463e-01,2.727272726821938220e-01
1.850501367365542382e-01,2.561983470650912031e-01
1.859617137648131302e-01,2.561983470650912031e-01
1.868732907930720222e-01,3.388429751506044640e-01
1.877848678213308864e-01,1.239669421282699191e-01
1.886964448495897784e-01,1.074380165111672725e-01
1.896080218778486703e-01,9.090909089406461197e-02
1.905195989061075623e-01,9.090909089406461197e-02
1.914311759343664543e-01,7.438016527696195146e-02
1.923427529626253463e-01,7.438016527696195146e-02
1.932543299908842382e-01,7.438016527696195146e-02
1.941659070191431025e-01,1.735537189795778867e-01
1.950774840474019944e-01,1.735537189795778867e-01
1.959890610756608864e-01,1.735537189795778867e-01
1.969006381039197784e-01,1.735537189795778867e-01
1.978122151321786704e-01,1.735537189795778867e-01
1.987237921604375623e-01,1.735537189795778867e-01
1.996353691886964266e-01,1.735537189795778867e-01
2.005469462169553185e-01,1.735537189795778867e-01
2.014585232452142105e-01,1.735537189795778867e-01
2.023701002734731025e-01,1.735537189795778867e-01
2.032816773017319945e-01,1.735537189795778867e-01
2.041932543299908864e-01,1.900826445966805611e-01
2.051048313582497784e-01,1.900826445966805611e-01
2.060164083865086426e-01,2.892561982992964964e-01
2.069279854147675346e-01,2.892561982992964964e-01
2.078395624430264266e-01,3.057851239163991708e-01
2.087511394712853185e-01,3.223140495335017897e-01
2.096627164995442105e-01,3.388429751506044640e-01
2.105742935278031025e-01,3.388429751506044640e-01
2.114858705560619945e-01,3.388429751506044640e-01
2.123974475843208587e-01,3.057851239163991708e-01
2.133090246125797507e-01,2.892561982992964964e-01
2.142206016408386426e-01,5.785123965985929789e-02
2.151321786690975346e-01,1.570247933624752401e-01
2.160437556973564266e-01,1.404958677453725935e-01
2.169553327256153186e-01,1.239669421282699191e-01
2.178669097538742105e-01,1.239669421282699191e-01
2.187784867821330748e-01,-5.371900825558363346e-01
2.196900638103919667e-01,-5.537190081729389535e-01
2.206016408386508587e-01,-8.347107436636841404e-01
2.215132178669097507e-01,-9.008264461320948380e-01
2.224247948951686427e-01,-9.338842973663000757e-01
2.233363719234275346e-01,-9.338842973663000757e-01
2.242479489516863989e-01,-9.669421486005054245e-01
2.251595259799452908e-01,-9.834710742176080434e-01
2.260711030082041828e-01,-9.834710742176080434e-01
2.269826800364630748e-01,-9.669421486005054245e-01
2.278942570647219668e-01,-9.504132229834028056e-01
2.288058340929808587e-01,-8.842975205149921081e-01
2.297174111212397507e-01,-8.347107436636841404e-01
2.306289881494986149e-01,2.396694214479885288e-01
2.315405651777575069e-01,2.892561982992964964e-01
2.324521422060163989e-01,3.553719007677071384e-01
2.333637192342752908e-01,3.553719007677071384e-01
2.342752962625341828e-01,3.057851239163991708e-01
2.351868732907930748e-01,2.396694214479885288e-01
2.360984503190519668e-01,1.404958677453725935e-01
2.370100273473108310e-01,1.404958677453725935e-01
2.379216043755697230e-01,1.404958677453725935e-01
2.388331814038286149e-01,1.404958677453725935e-01
2.397447584320875069e-01,1.404958677453725935e-01
2.406563354603463989e-01,1.404958677453725935e-01
2.415679124886052909e-01,1.404958677453725935e-01
2.424794895168641828e-01,1.404958677453725935e-01
2.433910665451230471e-01,1.404958677453725935e-01
2.443026435733819390e-01,1.404958677453725935e-01
2.452142206016408310e-01,1.570247933624752401e-01
2.461257976298997230e-01,1.404958677453725935e-01
2.470373746581586150e-01,1.404958677453725935e-01
2.479489516864175069e-01,1.404958677453725935e-01
2.488605287146763712e-01,1.570247933624752401e-01
2.497721057429352631e-01,1.570247933624752401e-01
2.506836827711941829e-01,1.570247933624752401e-01
2.515952597994530748e-01,1.735537189795778867e-01
2.525068368277119113e-01,1.735537189795778867e-01
2.534184138559708033e-01,2.727272726821938220e-01
2.543299908842296952e-01,2.727272726821938220e-01
2.552415679124885872e-01,1.735537189795778867e-01
2.561531449407474792e-01,1.570247933624752401e-01
2.570647219690063712e-01,1.570247933624752401e-01
2.579762989972652631e-01,1.570247933624752401e-01
2.588878760255241551e-01,1.570247933624752401e-01
2.597994530537830471e-01,1.570247933624752401e-01
2.607110300820419391e-01,4.132231404275664433e-02
2.616226071103008310e-01,2.479338842565398382e-02
2.625341841385597230e-01,2.479338842565398382e-02
2.634457611668186150e-01,8.264462808551328518e-03
2.643573381950774515e-01,-8.264462808551328518e-03
2.652689152233363434e-01,9.090909089406461197e-02
2.661804922515952354e-01,9.090909089406461197e-02
2.670920692798541274e-01,9.090909089406461197e-02
2.680036463081130194e-01,9.090909089406461197e-02
2.689152233363719113e-01,9.090909089406461197e-02
2.698268003646308033e-01,9.090909089406461197e-02
2.707383773928896953e-01,9.090909089406461197e-02
2.716499544211485873e-01,1.074380165111672725e-01
2.725615314494074792e-01,1.239669421282699191e-01
2.734731084776663712e-01,1.404958677453725935e-01
2.743846855059252632e-01,1.239669421282699191e-01
2.752962625341841552e-01,1.239669421282699191e-01
2.762078395624430471e-01,1.404958677453725935e-01
2.771194165907018836e-01,1.404958677453725935e-01
2.780309936189607756e-01,1.404958677453725935e-01
2.789425706472196675e-01,1.570247933624752401e-01
2.798541476754785595e-01,1.570247933624752401e-01
2.807657247037374515e-01,2.727272726821938220e-01
2.816773017319963435e-01,2.892561982992964964e-01
2.825888787602552354e-01,2.892561982992964964e-01
2.835004557885141274e-01,2.892561982992964964e-01
2.844120328167730194e-01,2.892561982992964964e-01
2.853236098450319114e-01,2.892561982992964964e-01
2.862351868732908033e-01,2.892561982992964964e-01
2.871467639015496953e-01,3.057851239163991708e-01
2.880583409298085873e-01,3.057851239163991708e-01
2.889699179580674238e-01,3.388429751506044640e-01
2.898814949863263157e-01,3.553719007677071384e-01
2.907930720145852077e-01,3.388429751506044640e-01
2.917046490428440997e-01,3.057851239163991708e-01
2.926162260711029917e-01,2.479338842565398382e-02
2.935278030993618836e-01,-8.264462808551328518e-03
2.944393801276207756e-01,-7.190082643439655863e-01
2.953509571558796676e-01,-7.685950411952735539e-01
2.962625341841385596e-01,-8.016528924294789027e-01
2.971741112123974515e-01,-8.181818180465815216e-01
2.980856882406563435e-01,-8.347107436636841404e-01
2.989972652689152355e-01,-8.347107436636841404e-01
2.999088422971741275e-01,-8.347107436636841404e-01
3.008204193254330194e-01,-8.347107436636841404e-01
3.017319963536918559e-01,-8.181818180465815216e-01
3.026435733819507479e-01,-8.016528924294789027e-01
3.035551504102096398e-01,-7.851239668123761728e-01
3.044667274384685318e-01,-7.520661155781709351e-01
3.053783044667274238e-01,-7.190082643439655863e-01
3.062898814949863158e-01,2.727272726821938220e-01
3.072014585232452077e-01,2.727272726821938220e-01
3.081130355515040997e-01,1.900826445966805611e-01
3.090246125797629917e-01,2.066115702137832078e-01
3.099361896080218837e-01,2.066115702137832078e-01
3.108477666362807756e-01,2.066115702137832078e-01
3.117593436645396676e-01,2.066115702137832078e-01
3.126709206927985596e-01,2.066115702137832078e-01
3.135824977210573961e-01,2.231404958308858544e-01
3.144940747493162880e-01,2.231404958308858544e-01
3.154056517775751800e-01,2.396694214479885288e-01
3.163172288058340720e-01,2.396694214479885288e-01
3.172288058340929640e-01,2.561983470650912031e-01
3.181403828623518559e-01,2.727272726821938220e-01
3.190519598906107479e-01,2.727272726821938220e-01
3.199635369188696399e-01,2.892561982992964964e-01
3.208751139471285319e-01,2.892561982992964964e-01
3.217866909753874238e-01,2.892561982992964964e-01
3.226982680036463158e-01,2.892561982992964964e-01
3.236098450319052078e-01,2.892561982992964964e-01
3.245214220601640998e-01,3.057851239163991708e-01
3.254329990884229917e-01,3.057851239163991708e-01
3.263445761166818282e-01,3.057851239163991708e-01
3.272561531449407202e-01,3.223140495335017897e-01
3.281677301731996121e-01,3.223140495335017897e-01
3.290793072014585041e-01,3.223140495335017897e-01
3.299908842297173961e-01,3.223140495335017897e-01
3.309024612579762881e-01,3.388429751506044640e-01
3.318140382862351800e-01,3.388429751506044640e-01
3.327256153144940720e-01,3.388429751506044640e-01
3.336371923427529640e-01,3.223140495335017897e-01
3.345487693710118560e-01,3.223140495335017897e-01
3.354603463992707479e-01,3.223140495335017897e-01
3.363719234275296399e-01,3.057851239163991708e-01
3.372835004557885319e-01,3.057851239163991708e-01
3.381950774840473684e-01,3.057851239163991708e-01
3.391066545123062603e-01,2.892561982992964964e-01
3.400182315405651523e-01,2.892561982992964964e-01
3.409298085688240443e-01,1.735537189795778867e-01
3.418413855970829363e-01,2.727272726821938220e-01
3.427529626253418282e-01,2.727272726821938220e-01
3.436645396536007202e-01,2.727272726821938220e-01
3.445761166818596122e-01,2.727272726821938220e-01
3.454876937101185042e-01,2.727272726821938220e-01
3.463992707383773961e-01,2.727272726821938220e-01
3.473108477666362881e-01,2.727272726821938220e-01
3.482224247948951801e-01,2.727272726821938220e-01
3.491340018231540721e-01,2.892561982992964964e-01
3.500455788514129640e-01,2.892561982992964964e-01
3.509571558796718005e-01,2.892561982992964964e-01
3.518687329079306925e-01,2.892561982992964964e-01
3.527803099361895844e-01,2.892561982992964964e-01
3.536918869644484764e-01,2.892561982992964964e-01
3.546034639927073684e-01,3.057851239163991708e-01
3.555150410209662604e-01,3.223140495335017897e-01
3.564266180492251523e-01,4.214876032361177249e-01
3.573381950774840443e-01,4.545454544703230737e-01
3.582497721057429363e-01,4.710743800874256926e-01
3.591613491340018283e-01,4.710743800874256926e-01
3.600729261622607202e-01,4.876033057045283670e-01
3.609845031905196122e-01,4.876033057045283670e-01
3.618960802187785042e-01,4.876033057045283670e-01
3.628076572470373407e-01,4.876033057045283670e-01
3.637192342752962326e-01,4.710743800874256926e-01
3.646308113035551246e-01,4.710743800874256926e-01
3.655423883318140166e-01,4.710743800874256926e-01
3.664539653600729086e-01,4.710743800874256926e-01
3.673655423883318005e-01,1.404958677453725935e-01
3.682771194165906925e-01,1.239669421282699191e-01
3.691886964448495845e-01,1.239669421282699191e-01
3.701002734731084765e-01,-8.347107436636841404e-01
3.710118505013673684e-01,-8.512396692807868703e-01
3.719234275296262604e-01,-8.842975205149921081e-01
3.728350045578851524e-01,-9.008264461320948380e-01
3.737465815861440444e-01,-9.173553717491974568e-01
3.746581586144028808e-01,-9.338842973663000757e-01
3.755697356426617728e-01,-9.338842973663000757e-01
3.764813126709206648e-01,-9.173553717491974568e-01
3.773928896991795567e-01,-9.173553717491974568e-01
3.783044667274384487e-01,-8.842975205149921081e-01
3.792160437556973407e-01,-8.347107436636841404e-01
3.801276207839562327e-01,-6.363636362584522699e-01
3.810391978122151246e-01,-2.892561982992964964e-01
3.819507748404740166e-01,3.388429751506044640e-01
3.828623518687329086e-01,3.223140495335017897e-01
3.837739288969918006e-01,3.223140495335017897e-01
3.846855059252506925e-01,2.396694214479885288e-01
3.855970829535095845e-01,3.223140495335017897e-01
3.865086599817684765e-01,2.396694214479885288e-01
3.874202370100273130e-01,2.396694214479885288e-01
3.883318140382862049e-01,2.396694214479885288e-01
3.892433910665450969e-01,2.396694214479885288e-01
3.901549680948039889e-01,2.396694214479885288e-01
3.910665451230628809e-01,2.396694214479885288e-01
3.919781221513217728e-01,2.396694214479885288e-01
3.928896991795806648e-01,2.396694214479885288e-01
3.938012762078395568e-01,2.396694214479885288e-01
3.947128532360984488e-01,2.396694214479885288e-01
3.956244302643573407e-01,2.396694214479885288e-01
3.965360072926162327e-01,2.396694214479885288e-01
3.974475843208751247e-01,2.396694214479885288e-01
3.983591613491340166e-01,2.396694214479885288e-01
3.992707383773928531e-01,2.396694214479885288e-01
4.001823154056517451e-01,2.396694214479885288e-01
4.010938924339106371e-01,2.396694214479885288e-01
4.020054694621695290e-01,2.396694214479885288e-01
4.029170464904284210e-01,2.396694214479885288e-01
4.038286235186873130e-01,2.396694214479885288e-01
4.047402005469462050e-01,2.396694214479885288e-01
4.056517775752050969e-01,2.396694214479885288e-01
4.065633546034639889e-01,2.231404958308858544e-01
4.074749316317228809e-01,2.231404958308858544e-01
4.083865086599817729e-01,2.231404958308858544e-01
4.092980856882406648e-01,2.231404958308858544e-01
4.102096627164995568e-01,2.066115702137832078e-01
4.111212397447584488e-01,2.066115702137832078e-01
4.120328167730172853e-01,9.090909089406461197e-02
4.129443938012761772e-01,7.438016527696195146e-02
4.138559708295350692e-01,7.438016527696195146e-02
4.147675478577939612e-01,5.785123965985929789e-02
4.156791248860528531e-01,1.570247933624752401e-01
4.165907019143117451e-01,1.570247933624752401e-01
4.175022789425706371e-01,1.570247933624752401e-01
4.184138559708295291e-01,1.570247933624752401e-01
4.193254329990884210e-01,1.570247933624752401e-01
4.202370100273473130e-01,1.570247933624752401e-01
4.211485870556062050e-01,1.570247933624752401e-01
4.220601640838650970e-01,1.735537189795778867e-01
4.229717411121239889e-01,1.735537189795778867e-01
4.238833181403828254e-01,1.900826445966805611e-01
4.247948951686417174e-01,1.900826445966805611e-01
4.257064721969006094e-01,1.900826445966805611e-01
4.266180492251595013e-01,1.900826445966805611e-01
4.275296262534183933e-01,1.900826445966805611e-01
4.284412032816772853e-01,1.900826445966805611e-01
4.293527803099361773e-01,1.900826445966805611e-01
4.302643573381950692e-01,1.900826445966805611e-01
4.311759343664539612e-01,1.900826445966805611e-01
4.320875113947128532e-01,2.066115702137832078e-01
4.329990884229717452e-01,3.057851239163991708e-01
4.339106654512306371e-01,3.223140495335017897e-01
4.348222424794895291e-01,3.388429751506044640e-01
4.357338195077484211e-01,3.553719007677071384e-01
4.366453965360072575e-01,3.553719007677071384e-01
4.375569735642661495e-01,3.719008263848097573e-01
4.384685505925250415e-01,3.719008263848097573e-01
4.393801276207839335e-01,3.719008263848097573e-01
4.402917046490428254e-01,3.719008263848097573e-01
4.412032816773017174e-01,3.719008263848097573e-01
4.421148587055606094e-01,3.719008263848097573e-01
4.430264357338195014e-01,3.719008263848097573e-01
4.439380127620783933e-01,3.553719007677071384e-01
4.448495897903372853e-01,7.438016527696195146e-02
4.457611668185961773e-01,7.438016527696195146e-02
4.466727438468550693e-01,7.438016527696195146e-02
4.475843208751139612e-01,7.438016527696195146e-02
4.484958979033727977e-01,-8.016528924294789027e-01
4.494074749316316897e-01,-8.347107436636841404e-01
4.503190519598905817e-01,-8.347107436636841404e-01
4.512306289881494736e-01,-8.347107436636841404e-01
4.521422060164083656e-01,-8.347107436636841404e-01
4.530537830446672576e-01,-8.181818180465815216e-01
4.539653600729261496e-01,-7.851239668123761728e-01
4.548769371011850415e-01,-7.685950411952735539e-01
4.557885141294439335e-01,-7.355371899610682052e-01
4.567000911577028255e-01,-7.024793387268628564e-01
4.576116681859617175e-01,-3.057851239163991708e-01
4.585232452142206094e-01,3.057851239163991708e-01
4.594348222424795014e-01,3.057851239163991708e-01
4.603463992707383934e-01,2.066115702137832078e-01
4.612579762989972298e-01,2.231404958308858544e-01
4.621695533272561218e-01,2.231404958308858544e-01
4.630811303555150138e-01,2.231404958308858544e-01
4.639927073837739058e-01,2.231404958308858544e-01
4.649042844120327977e-01,2.231404958308858544e-01
4.658158614402916897e-01,2.396694214479885288e-01
4.667274384685505817e-01,2.396694214479885288e-01
4.676390154968094737e-01,2.396694214479885288e-01
4.685505925250683656e-01,2.561983470650912031e-01
4.694621695533272576e-01,2.561983470650912031e-01
4.703737465815861496e-01,2.727272726821938220e-01
4.712853236098450416e-01,2.727272726821938220e-01
4.721969006381039335e-01,2.892561982992964964e-01
4.731084776663627700e-01,2.892561982992964964e-01
4.740200546946216620e-01,3.057851239163991708e-01
4.749316317228805540e-01,3.057851239163991708e-01
4.758432087511394459e-01,3.057851239163991708e-01
4.767547857793983379e-01,3.223140495335017897e-01
4.776663628076572299e-01,3.388429751506044640e-01
4.785779398359161219e-01,3.388429751506044640e-01
4.794895168641750138e-01,3.553719007677071384e-01
4.804010938924339058e-01,3.553719007677071384e-01
4.813126709206927978e-01,3.553719007677071384e-01
4.822242479489516898e-01,3.553719007677071384e-01
4.831358249772105817e-01,3.719008263848097573e-01
4.840474020054694737e-01,3.553719007677071384e-01
4.849589790337283657e-01,3.719008263848097573e-01
4.858705560619872021e-01,3.719008263848097573e-01
4.867821330902460941e-01,3.719008263848097573e-01
4.876937101185049861e-01,3.719008263848097573e-01
4.886052871467638781e-01,3.553719007677071384e-01
4.895168641750227700e-01,4.380165288532203993e-01
4.904284412032816620e-01,4.380165288532203993e-01
4.913400182315405540e-01,2.231404958308858544e-01
4.922515952597994460e-01,2.231404958308858544e-01
4.931631722880583379e-01,3.223140495335017897e-01
4.940747493163172299e-01,3.057851239163991708e-01
4.949863263445761219e-01,3.057851239163991708e-01
4.958979033728350139e-01,3.057851239163991708e-01
4.968094804010939058e-01,3.057851239163991708e-01
4.977210574293527423e-01,3.057851239163991708e-01
4.986326344576116343e-01,3.057851239163991708e-01
4.995442114858705263e-01,3.057851239163991708e-01
5.004557885141294182e-01,3.057851239163991708e-01
5.013673655423883657e-01,3.057851239163991708e-01
5.022789425706472022e-01,3.223140495335017897e-01
5.031905195989061497e-01,3.223140495335017897e-01
5.041020966271649861e-01,3.223140495335017897e-01
5.050136736554238226e-01,3.223140495335017897e-01
5.059252506836827701e-01,3.223140495335017897e-01
5.068368277119416065e-01,3.388429751506044640e-01
5.077484047402005540e-01,3.388429751506044640e-01
5.086599817684593905e-01,3.388429751506044640e-01
5.095715587967183380e-01,3.388429751506044640e-01
5.104831358249771744e-01,4.545454544703230737e-01
5.113947128532361219e-01,4.876033057045283670e-01
5.123062898814949584e-01,5.206611569387337157e-01
5.132178669097539059e-01,5.371900825558363346e-01
5.141294439380127423e-01,5.537190081729389535e-01
5.150410209662716898e-01,5.537190081729389535e-01
5.159525979945305263e-01,5.537190081729389535e-01
5.168641750227893628e-01,5.537190081729389535e-01
5.177757520510483102e-01,5.537190081729389535e-01
5.186873290793071467e-01,5.371900825558363346e-01
5.195989061075660942e-01,5.206611569387337157e-01
5.205104831358249307e-01,4.876033057045283670e-01
5.214220601640838781e-01,4.545454544703230737e-01
5.223336371923427146e-01,2.066115702137832078e-01
5.232452142206016621e-01,1.900826445966805611e-01
5.241567912488604986e-01,1.735537189795778867e-01
5.250683682771194460e-01,-5.867768594071443022e-01
5.259799453053782825e-01,-6.198347106413496510e-01
5.268915223336372300e-01,-8.347107436636841404e-01
5.278030993618960665e-01,-8.842975205149921081e-01
5.287146763901549029e-01,-8.842975205149921081e-01
5.296262534184138504e-01,-8.842975205149921081e-01
5.305378304466726869e-01,-8.842975205149921081e-01
5.314494074749316344e-01,-8.677685948978894892e-01
5.323609845031904708e-01,-8.347107436636841404e-01
5.332725615314494183e-01,-6.694214874926576186e-01
5.341841385597082548e-01,-6.033057850242469211e-01
5.350957155879672023e-01,-5.702479337900416834e-01
5.360072926162260387e-01,-4.049586776190151061e-01
5.369188696444849862e-01,4.380165288532203993e-01
5.378304466727438227e-01,4.214876032361177249e-01
5.387420237010027702e-01,4.214876032361177249e-01
5.396536007292616066e-01,3.223140495335017897e-01
5.405651777575204431e-01,3.223140495335017897e-01
5.414767547857793906e-01,3.223140495335017897e-01
5.423883318140382270e-01,3.223140495335017897e-01
5.432999088422971745e-01,3.057851239163991708e-01
5.442114858705560110e-01,3.057851239163991708e-01
5.451230628988149585e-01,3.057851239163991708e-01
5.460346399270737949e-01,3.057851239163991708e-01
5.469462169553327424e-01,3.057851239163991708e-01
5.478577939835915789e-01,3.057851239163991708e-01
5.487693710118505264e-01,3.057851239163991708e-01
5.496809480401093628e-01,3.057851239163991708e-01
5.505925250683683103e-01,3.057851239163991708e-01
5.515041020966271468e-01,3.057851239163991708e-01
5.524156791248860943e-01,3.057851239163991708e-01
5.533272561531449307e-01,3.057851239163991708e-01
5.542388331814037672e-01,3.057851239163991708e-01
5.551504102096627147e-01,3.057851239163991708e-01
5.560619872379215511e-01,3.057851239163991708e-01
5.569735642661804986e-01,3.057851239163991708e-01
5.578851412944393351e-01,3.057851239163991708e-01
5.587967183226982826e-01,3.057851239163991708e-01
5.597082953509571190e-01,3.057851239163991708e-01
5.606198723792160665e-01,3.057851239163991708e-01
5.615314494074749030e-01,2.892561982992964964e-01
5.624430264357338505e-01,2.892561982992964964e-01
5.633546034639926869e-01,2.892561982992964964e-01
5.642661804922516344e-01,2.892561982992964964e-01
5.651777575205104709e-01,2.892561982992964964e-01
5.660893345487693074e-01,2.727272726821938220e-01
5.670009115770282548e-01,2.727272726821938220e-01
5.679124886052870913e-01,2.561983470650912031e-01
5.688240656335460388e-01,2.396694214479885288e-01
5.697356426618048753e-01,2.396694214479885288e-01
5.706472196900638227e-01,2.231404958308858544e-01
5.715587967183226592e-01,2.231404958308858544e-01
5.724703737465816067e-01,2.066115702137832078e-01
5.733819507748404432e-01,2.066115702137832078e-01
5.742935278030993906e-01,2.066115702137832078e-01
5.752051048313582271e-01,2.231404958308858544e-01
5.761166818596171746e-01,2.231404958308858544e-01
5.770282588878760111e-01,2.231404958308858544e-01
5.779398359161348475e-01,2.396694214479885288e-01
5.788514129443937950e-01,2.396694214479885288e-01
5.797629899726526315e-01,2.561983470650912031e-01
5.806745670009115790e-01,2.561983470650912031e-01
5.815861440291704154e-01,2.561983470650912031e-01
5.824977210574293629e-01,2.727272726821938220e-01
5.834092980856881994e-01,2.727272726821938220e-01
5.843208751139471469e-01,2.727272726821938220e-01
5.852324521422059833e-01,2.727272726821938220e-01
5.861440291704649308e-01,2.727272726821938220e-01
5.870556061987237673e-01,2.727272726821938220e-01
5.879671832269827147e-01,2.727272726821938220e-01
5.888787602552415512e-01,2.892561982992964964e-01
5.897903372835003877e-01,3.884297520019124317e-01
5.907019143117593352e-01,4.214876032361177249e-01
5.916134913400181716e-01,4.214876032361177249e-01
5.925250683682771191e-01,4.380165288532203993e-01
5.934366453965359556e-01,4.380165288532203993e-01
5.943482224247949031e-01,4.380165288532203993e-01
5.952597994530537395e-01,4.380165288532203993e-01
5.961713764813126870e-01,4.380165288532203993e-01
5.970829535095715235e-01,4.214876032361177249e-01
5.979945305378304710e-01,4.049586776190151061e-01
5.989061075660893074e-01,3.884297520019124317e-01
5.998176845943482549e-01,3.884297520019124317e-01
6.007292616226070914e-01,1.570247933624752401e-01
6.016408386508660389e-01,1.570247933624752401e-01
6.025524156791248753e-01,1.404958677453725935e-01
6.034639927073837118e-01,1.404958677453725935e-01
6.043755697356426593e-01,-6.694214874926576186e-01
6.052871467639014957e-01,-7.190082643439655863e-01
6.061987237921604432e-01,-7.190082643439655863e-01
6.071103008204192797e-01,-7.355371899610682052e-01
6.080218778486782272e-01,-7.520661155781709351e-01
6.089334548769370636e-01,-7.685950411952735539e-01
6.098450319051960111e-01,-7.685950411952735539e-01
6.107566089334548476e-01,-7.685950411952735539e-01
6.116681859617137951e-01,-7.520661155781709351e-01
6.125797629899726315e-01,-7.355371899610682052e-01
6.134913400182315790e-01,-5.867768594071443022e-01
6.144029170464904155e-01,-3.553719007677071384e-01
6.153144940747492520e-01,-2.066115702137832078e-01
6.162260711030081994e-01,4.049586776190151061e-01
6.171376481312670359e-01,3.884297520019124317e-01
6.180492251595259834e-01,3.057851239163991708e-01
6.189608021877848198e-01,3.223140495335017897e-01
6.198723792160437673e-01,3.223140495335017897e-01
6.207839562443026038e-01,3.223140495335017897e-01
6.216955332725615513e-01,3.223140495335017897e-01
6.226071103008203877e-01,3.388429751506044640e-01
6.235186873290793352e-01,3.388429751506044640e-01
6.244302643573381717e-01,3.388429751506044640e-01
6.253418413855971192e-01,3.388429751506044640e-01
6.262534184138559556e-01,3.388429751506044640e-01
6.271649954421147921e-01,3.553719007677071384e-01
6.280765724703737396e-01,3.553719007677071384e-01
6.289881494986325761e-01,3.553719007677071384e-01
6.298997265268915235e-01,3.719008263848097573e-01
6.308113035551503600e-01,3.719008263848097573e-01
6.317228805834093075e-01,3.719008263848097573e-01
6.326344576116681440e-01,3.719008263848097573e-01
6.335460346399270914e-01,3.719008263848097573e-01
6.344576116681859279e-01,3.719008263848097573e-01
6.353691886964448754e-01,3.884297520019124317e-01
6.362807657247037119e-01,3.884297520019124317e-01
6.371923427529626593e-01,3.884297520019124317e-01
6.381039197812214958e-01,4.049586776190151061e-01
6.390154968094803323e-01,4.049586776190151061e-01
6.399270738377392798e-01,4.049586776190151061e-01
6.408386508659981162e-01,4.049586776190151061e-01
6.417502278942570637e-01,4.214876032361177249e-01
6.426618049225159002e-01,4.380165288532203993e-01
6.435733819507748477e-01,4.380165288532203993e-01
6.444849589790336841e-01,4.380165288532203993e-01
6.453965360072926316e-01,4.380165288532203993e-01
6.463081130355514681e-01,4.380165288532203993e-01
6.472196900638104156e-01,5.206611569387337157e-01
6.481312670920692520e-01,5.041322313216309858e-01
6.490428441203281995e-01,5.041322313216309858e-01
6.499544211485870360e-01,2.727272726821938220e-01
6.508659981768459835e-01,2.561983470650912031e-01
6.517775752051048199e-01,2.561983470650912031e-01
6.526891522333636564e-01,2.561983470650912031e-01
6.536007292616226039e-01,2.561983470650912031e-01
6.545123062898814403e-01,3.553719007677071384e-01
6.554238833181403878e-01,3.719008263848097573e-01
6.563354603463992243e-01,3.719008263848097573e-01
6.572470373746581718e-01,3.719008263848097573e-01
6.581586144029170082e-01,3.719008263848097573e-01
6.590701914311759557e-01,3.719008263848097573e-01
6.599817684594347922e-01,3.719008263848097573e-01
6.608933454876937397e-01,3.719008263848097573e-01
6.618049225159525761e-01,3.719008263848097573e-01
6.627164995442115236e-01,3.884297520019124317e-01
6.636280765724703601e-01,3.884297520019124317e-01
6.645396536007291965e-01,3.884297520019124317e-01
6.654512306289881440e-01,3.884297520019124317e-01
6.663628076572469805e-01,3.884297520019124317e-01
6.672743846855059280e-01,3.884297520019124317e-01
6.681859617137647644e-01,4.049586776190151061e-01
6.690975387420237119e-01,5.041322313216309858e-01
6.700091157702825484e-01,5.371900825558363346e-01
6.709206927985414959e-01,5.702479337900416834e-01
6.718322698268003323e-01,5.867768594071443022e-01
6.727438468550592798e-01,6.033057850242469211e-01
6.736554238833181163e-01,6.033057850242469211e-01
6.745670009115770638e-01,6.198347106413496510e-01
6.754785779398359002e-01,6.198347106413496510e-01
6.763901549680947367e-01,6.198347106413496510e-01
6.773017319963536842e-01,6.198347106413496510e-01
6.782133090246125207e-01,6.198347106413496510e-01
6.791248860528714681e-01,6.198347106413496510e-01
6.800364630811303046e-01,6.033057850242469211e-01
6.809480401093892521e-01,3.057851239163991708e-01
6.818596171376480886e-01,3.057851239163991708e-01
6.827711941659070360e-01,3.057851239163991708e-01
6.836827711941658725e-01,3.057851239163991708e-01
6.845943482224248200e-01,-7.024793387268628564e-01
6.855059252506836565e-01,-7.355371899610682052e-01
6.864175022789426039e-01,-7.520661155781709351e-01
6.873290793072014404e-01,-7.520661155781709351e-01
6.882406563354602769e-01,-7.520661155781709351e-01
6.891522333637192244e-01,-7.520661155781709351e-01
6.900638103919780608e-01,-7.520661155781709351e-01
6.909753874202370083e-01,-7.520661155781709351e-01
6.918869644484958448e-01,-7.355371899610682052e-01
6.927985414767547923e-01,-7.190082643439655863e-01
6.937101185050136287e-01,-7.024793387268628564e-01
6.946216955332725762e-01,-6.694214874926576186e-01
6.955332725615314127e-01,-5.867768594071443022e-01
6.964448495897903602e-01,5.867768594071443022e-01
6.973564266180491966e-01,5.867768594071443022e-01
6.982680036463081441e-01,5.702479337900416834e-01
6.991795806745669806e-01,5.702479337900416834e-01
7.000911577028259281e-01,5.702479337900416834e-01
7.010027347310847645e-01,5.702479337900416834e-01
7.019143117593436010e-01,5.041322313216309858e-01
7.028258887876025485e-01,5.041322313216309858e-01
7.037374658158613849e-01,5.041322313216309858e-01
7.046490428441203324e-01,4.876033057045283670e-01
7.055606198723791689e-01,4.876033057045283670e-01
7.064721969006381164e-01,4.876033057045283670e-01
7.073837739288969528e-01,4.876033057045283670e-01
7.082953509571559003e-01,4.876033057045283670e-01
7.092069279854147368e-01,4.876033057045283670e-01
7.101185050136736843e-01,4.876033057045283670e-01
7.110300820419325207e-01,4.876033057045283670e-01
7.119416590701914682e-01,4.876033057045283670e-01
7.128532360984503047e-01,4.876033057045283670e-01
7.137648131267091411e-01,4.876033057045283670e-01
7.146763901549680886e-01,4.876033057045283670e-01
7.155879671832269251e-01,4.876033057045283670e-01
7.164995442114858726e-01,4.876033057045283670e-01
7.174111212397447090e-01,4.876033057045283670e-01
7.183226982680036565e-01,4.876033057045283670e-01
7.192342752962624930e-01,4.710743800874256926e-01
7.201458523245214405e-01,4.710743800874256926e-01
7.210574293527802769e-01,4.876033057045283670e-01
7.219690063810392244e-01,4.876033057045283670e-01
7.228805834092980609e-01,4.710743800874256926e-01
7.237921604375570084e-01,4.710743800874256926e-01
7.247037374658158448e-01,4.545454544703230737e-01
7.256153144940746813e-01,4.545454544703230737e-01
7.265268915223336288e-01,3.223140495335017897e-01
7.274384685505924653e-01,3.057851239163991708e-01
7.283500455788514127e-01,2.892561982992964964e-01
7.292616226071102492e-01,2.727272726821938220e-01
7.301731996353691967e-01,2.561983470650912031e-01
7.310847766636280332e-01,2.396694214479885288e-01
7.319963536918869806e-01,2.231404958308858544e-01
7.329079307201458171e-01,2.231404958308858544e-01
7.338195077484047646e-01,2.231404958308858544e-01
7.347310847766636011e-01,2.231404958308858544e-01
7.356426618049225485e-01,2.231404958308858544e-01
7.365542388331813850e-01,2.231404958308858544e-01
7.374658158614402215e-01,2.231404958308858544e-01
7.383773928896991690e-01,4.214876032361177249e-01
7.392889699179580054e-01,4.214876032361177249e-01
7.402005469462169529e-01,4.380165288532203993e-01
7.411121239744757894e-01,4.380165288532203993e-01
7.420237010027347369e-01,4.380165288532203993e-01
7.429352780309935733e-01,3.553719007677071384e-01
7.438468550592525208e-01,3.553719007677071384e-01
7.447584320875113573e-01,3.553719007677071384e-01
7.456700091157703048e-01,3.553719007677071384e-01
7.465815861440291412e-01,3.553719007677071384e-01
7.474931631722880887e-01,3.719008263848097573e-01
7.484047402005469252e-01,3.719008263848097573e-01
7.493163172288057616e-01,3.719008263848097573e-01
7.502278942570647091e-01,4.710743800874256926e-01
7.511394712853235456e-01,4.876033057045283670e-01
7.520510483135824931e-01,5.041322313216309858e-01
7.529626253418413295e-01,5.206611569387337157e-01
7.538742023701002770e-01,5.206611569387337157e-01
7.547857793983591135e-01,5.371900825558363346e-01
7.556973564266180610e-01,5.537190081729389535e-01
7.566089334548768974e-01,5.537190081729389535e-01
7.575205104831358449e-01,2.396694214479885288e-01
7.584320875113946814e-01,2.396694214479885288e-01
7.593436645396536289e-01,2.231404958308858544e-01
7.602552415679124653e-01,2.231404958308858544e-01
7.611668185961714128e-01,2.231404958308858544e-01
7.620783956244302493e-01,5.371900825558363346e-01
7.629899726526890857e-01,2.066115702137832078e-01
7.639015496809480332e-01,1.900826445966805611e-01
7.648131267092068697e-01,1.900826445966805611e-01
7.657247037374658172e-01,5.371900825558363346e-01
7.666362807657246536e-01,5.867768594071443022e-01
7.675478577939836011e-01,-6.528925618755548888e-01
7.684594348222424376e-01,-6.859504131097602375e-01
7.693710118505013851e-01,-7.024793387268628564e-01
7.702825888787602215e-01,-7.190082643439655863e-01
7.711941659070191690e-01,-7.355371899610682052e-01
7.721057429352780055e-01,-7.355371899610682052e-01
7.730173199635369530e-01,-7.355371899610682052e-01
7.739288969917957894e-01,-7.355371899610682052e-01
7.748404740200546259e-01,-7.190082643439655863e-01
7.757520510483135734e-01,-7.190082643439655863e-01
7.766636280765724099e-01,-7.024793387268628564e-01
7.775752051048313573e-01,-6.859504131097602375e-01
7.784867821330901938e-01,-6.363636362584522699e-01
7.793983591613491413e-01,5.537190081729389535e-01
7.803099361896079778e-01,5.537190081729389535e-01
7.812215132178669252e-01,5.371900825558363346e-01
7.821330902461257617e-01,5.371900825558363346e-01
7.830446672743847092e-01,5.206611569387337157e-01
7.839562443026435457e-01,5.206611569387337157e-01
7.848678213309024931e-01,5.206611569387337157e-01
7.857793983591613296e-01,5.206611569387337157e-01
7.866909753874201661e-01,5.206611569387337157e-01
7.876025524156791136e-01,5.371900825558363346e-01
7.885141294439379500e-01,5.371900825558363346e-01
7.894257064721968975e-01,5.371900825558363346e-01
7.903372835004557340e-01,5.537190081729389535e-01
7.912488605287146815e-01,3.388429751506044640e-01
7.921604375569735179e-01,3.553719007677071384e-01
7.930720145852324654e-01,3.719008263848097573e-01
7.939835916134913019e-01,3.719008263848097573e-01
7.948951686417502493e-01,4.876033057045283670e-01
7.958067456700090858e-01,4.876033057045283670e-01
7.967183226982680333e-01,4.876033057045283670e-01
7.976298997265268698e-01,4.876033057045283670e-01
7.985414767547857062e-01,3.884297520019124317e-01
7.994530537830446537e-01,3.884297520019124317e-01
8.003646308113034902e-01,3.884297520019124317e-01
8.012762078395624377e-01,3.884297520019124317e-01
8.021877848678212741e-01,4.049586776190151061e-01
8.030993618960802216e-01,6.033057850242469211e-01
8.040109389243390581e-01,6.198347106413496510e-01
8.049225159525980056e-01,6.198347106413496510e-01
8.058340929808568420e-01,6.198347106413496510e-01
8.067456700091157895e-01,6.198347106413496510e-01
8.076572470373746260e-01,6.198347106413496510e-01
8.085688240656335735e-01,6.198347106413496510e-01
8.094804010938924099e-01,6.198347106413496510e-01
8.103919781221513574e-01,6.363636362584522699e-01
8.113035551504101939e-01,6.363636362584522699e-01
8.122151321786690303e-01,6.363636362584522699e-01
8.131267092069279778e-01,6.363636362584522699e-01
8.140382862351868143e-01,6.198347106413496510e-01
8.149498632634457618e-01,3.553719007677071384e-01
8.158614402917045982e-01,3.553719007677071384e-01
8.167730173199635457e-01,3.388429751506044640e-01
8.176845943482223822e-01,3.388429751506044640e-01
8.185961713764813297e-01,3.388429751506044640e-01
8.195077484047401661e-01,3.388429751506044640e-01
8.204193254329991136e-01,3.388429751506044640e-01
8.213309024612579501e-01,3.388429751506044640e-01
8.222424794895168976e-01,3.388429751506044640e-01
8.231540565177757340e-01,3.388429751506044640e-01
8.240656335460345705e-01,3.388429751506044640e-01
8.249772105742935180e-01,3.388429751506044640e-01
8.258887876025523544e-01,3.388429751506044640e-01
8.268003646308113019e-01,5.702479337900416834e-01
8.277119416590701384e-01,5.867768594071443022e-01
8.286235186873290859e-01,5.041322313216309858e-01
8.295350957155879223e-01,5.041322313216309858e-01
8.304466727438468698e-01,5.041322313216309858e-01
8.313582497721057063e-01,5.041322313216309858e-01
8.322698268003646538e-01,5.041322313216309858e-01
8.331814038286234902e-01,5.041322313216309858e-01
8.340929808568824377e-01,5.041322313216309858e-01
8.350045578851412742e-01,5.041322313216309858e-01
8.359161349134001107e-01,5.206611569387337157e-01
8.368277119416590581e-01,5.371900825558363346e-01
8.377392889699178946e-01,5.371900825558363346e-01
8.386508659981768421e-01,5.206611569387337157e-01
8.395624430264356786e-01,5.206611569387337157e-01
8.404740200546946260e-01,5.206611569387337157e-01
8.413855970829534625e-01,5.537190081729389535e-01
8.422971741112124100e-01,5.524946433124128253e-01
8.432087511394712465e-01,5.512702784518868082e-01
8.441203281677301939e-01,5.500459135913606801e-01
8.450319051959890304e-01,5.488215487308344409e-01
8.459434822242479779e-01,5.475971838703083128e-01
8.468550592525068144e-01,5.463728190097822957e-01
8.477666362807656508e-01,5.451484541492561675e-01
8.486782133090245983e-01,5.439240892887299283e-01
8.495897903372834348e-01,5.426997244282039112e-01
8.505013673655423823e-01,5.414753595676777831e-01
8.514129443938012187e-01,5.402509947071516549e-01
8.523245214220601662e-01,5.390266298466255268e-01
8.532360984503190027e-01,5.378022649860993987e-01
8.541476754785779502e-01,5.365779001255732705e-01
8.550592525068367866e-01,5.353535352650471424e-01
8.559708295350957341e-01,5.341291704045210142e-01
8.568824065633545706e-01,5.329048055439948861e-01
8.577939835916135181e-01,5.316804406834687580e-01
8.587055606198723545e-01,5.304560758229427408e-01
8.596171376481313020e-01,5.292317109624165017e-01
8.605287146763901385e-01,5.280073461018903735e-01
8.614402917046489749e-01,5.267829812413643564e-01
8.623518687329079224e-01,5.255586163808382283e-01
8.632634457611667589e-01,5.243342515203119891e-01
8.641750227894257064e-01,5.231098866597858610e-01
8.650865998176845428e-01,5.218855217992598439e-01
8.659981768459434903e-01,5.206611569387337157e-01
8.669097538742023268e-01,5.194367920782074766e-01
8.678213309024612743e-01,5.182124272176814594e-01
8.687329079307201107e-01,5.169880623571553313e-01
8.696444849589790582e-01,5.157636974966292032e-01
8.705560619872378947e-01,5.145393326361031860e-01
8.714676390154968422e-01,5.133149677755769469e-01
8.723792160437556786e-01,5.120906029150508187e-01
8.732907930720145151e-01,5.108662380545246906e-01
8.742023701002734626e-01,5.096418731939986735e-01
8.751139471285322990e-01,5.084175083334724343e-01
8.760255241567912465e-01,5.071931434729463062e-01
8.769371011850500830e-01,5.059687786124202891e-01
8.778486782133090305e-01,5.047444137518941609e-01
8.787602552415678669e-01,5.035200488913679218e-01
8.796718322698268144e-01,5.022956840308417936e-01
8.805834092980856509e-01,5.010713191703157765e-01
8.814949863263445984e-01,4.998469543097895929e-01
8.824065633546034348e-01,4.986225894492634647e-01
8.833181403828623823e-01,4.973982245887373921e-01
8.842297174111212188e-01,4.961738597282112639e-01
8.851412944393800553e-01,4.949494948676850803e-01
8.860528714676390027e-01,4.937251300071590632e-01
8.869644484958978392e-01,4.925007651466328795e-01
8.878760255241567867e-01,4.912764002861067514e-01
8.887876025524156232e-01,4.900520354255805677e-01
8.896991795806745706e-01,4.888276705650545506e-01
8.906107566089334071e-01,4.876033057045283670e-01
8.915223336371923546e-01,4.876033057045283670e-01
8.924339106654511911e-01,5.041322313216309858e-01
8.933454876937101385e-01,6.363636362584522699e-01
8.942570647219689750e-01,6.363636362584522699e-01
8.951686417502279225e-01,6.694214874926576186e-01
8.960802187784867590e-01,6.859504131097602375e-01
8.969917958067455954e-01,7.024793387268628564e-01
8.979033728350045429e-01,7.190082643439655863e-01
8.988149498632633794e-01,7.190082643439655863e-01
8.997265268915223269e-01,7.355371899610682052e-01
9.006381039197811633e-01,7.355371899610682052e-01
9.015496809480401108e-01,7.355371899610682052e-01
9.024612579762989473e-01,7.520661155781709351e-01
9.033728350045578948e-01,7.520661155781709351e-01
9.042844120328167312e-01,7.520661155781709351e-01
9.051959890610756787e-01,3.553719007677071384e-01
9.061075660893345152e-01,3.553719007677071384e-01
9.070191431175934627e-01,3.223140495335017897e-01
9.079307201458522991e-01,2.727272726821938220e-01
9.088422971741112466e-01,1.900826445966805611e-01
9.097538742023700831e-01,-4.545454544703230737e-01
9.106654512306289195e-01,-5.206611569387337157e-01
9.115770282588878670e-01,-5.867768594071443022e-01
9.124886052871467035e-01,-6.033057850242469211e-01
9.134001823154056510e-01,-6.198347106413496510e-01
9.143117593436644874e-01,-6.198347106413496510e-01
9.152233363719234349e-01,-6.198347106413496510e-01
9.161349134001822714e-01,-6.363636362584522699e-01
9.170464904284412189e-01,-6.363636362584522699e-01
9.179580674567000553e-01,-6.363636362584522699e-01
9.188696444849590028e-01,-6.363636362584522699e-01
9.197812215132178393e-01,-6.363636362584522699e-01
9.206927985414767868e-01,9.999999998347107732e-01
9.216043755697356232e-01,-6.033057850242469211e-01
9.225159525979944597e-01,9.338842973663000757e-01
9.234275296262534072e-01,9.008264461320948380e-01
9.243391066545122436e-01,8.512396692807868703e-01
9.252506836827711911e-01,8.181818180465815216e-01
9.261622607110300276e-01,7.685950411952735539e-01
9.270738377392889751e-01,7.520661155781709351e-01
9.279854147675478115e-01,7.355371899610682052e-01
9.288969917958067590e-01,7.355371899610682052e-01
9.298085688240655955e-01,7.520661155781709351e-01
9.307201458523245430e-01,7.520661155781709351e-01
9.316317228805833794e-01,7.520661155781709351e-01
9.325432999088423269e-01,7.355371899610682052e-01
9.334548769371011634e-01,5.041322313216309858e-01
9.343664539653599999e-01,5.041322313216309858e-01
9.352780309936189473e-01,5.041322313216309858e-01
9.361896080218777838e-01,5.206611569387337157e-01
9.371011850501367313e-01,5.206611569387337157e-01
9.380127620783955678e-01,5.206611569387337157e-01
9.389243391066545152e-01,5.206611569387337157e-01
9.398359161349133517e-01,5.041322313216309858e-01
9.407474931631722992e-01,5.041322313216309858e-01
9.416590701914311357e-01,5.041322313216309858e-01
9.425706472196900831e-01,5.206611569387337157e-01
9.434822242479489196e-01,5.206611569387337157e-01
9.443938012762078671e-01,7.355371899610682052e-01
9.453053783044667036e-01,5.206611569387337157e-01
9.462169553327255400e-01,7.355371899610682052e-01
9.471285323609844875e-01,7.520661155781709351e-01
9.480401093892433240e-01,7.520661155781709351e-01
9.489516864175022715e-01,7.520661155781709351e-01
9.498632634457611079e-01,7.355371899610682052e-01
9.507748404740200554e-01,7.190082643439655863e-01
9.516864175022788919e-01,7.190082643439655863e-01
9.525979945305378394e-01,7.024793387268628564e-01
9.535095715587966758e-01,7.024793387268628564e-01
9.544211485870556233e-01,7.024793387268628564e-01
9.553327256153144598e-01,7.190082643439655863e-01
9.562443026435734073e-01,7.190082643439655863e-01
9.571558796718322437e-01,4.214876032361177249e-01
9.580674567000910802e-01,4.049586776190151061e-01
9.589790337283500277e-01,4.049586776190151061e-01
9.598906107566088641e-01,3.884297520019124317e-01
9.608021877848678116e-01,3.884297520019124317e-01
9.617137648131266481e-01,3.884297520019124317e-01
9.626253418413855956e-01,3.884297520019124317e-01
9.635369188696444320e-01,3.884297520019124317e-01
9.644484958979033795e-01,3.884297520019124317e-01
9.653600729261622160e-01,3.884297520019124317e-01
9.662716499544211635e-01,3.884297520019124317e-01
9.671832269826799999e-01,3.884297520019124317e-01
9.680948040109389474e-01,3.884297520019124317e-01
9.690063810391977839e-01,6.033057850242469211e-01
9.699179580674567314e-01,6.033057850242469211e-01
9.708295350957155678e-01,6.033057850242469211e-01
9.717411121239744043e-01,6.033057850242469211e-01
9.726526891522333518e-01,6.198347106413496510e-01
9.735642661804921882e-01,6.198347106413496510e-01
9.744758432087511357e-01,6.198347106413496510e-01
9.753874202370099722e-01,6.198347106413496510e-01
9.762989972652689197e-01,6.363636362584522699e-01
9.772105742935277561e-01,6.363636362584522699e-01
9.781221513217867036e-01,6.528925618755548888e-01
9.790337283500455401e-01,6.694214874926576186e-01
9.799453053783044876e-01,6.694214874926576186e-01
9.808568824065633240e-01,3.884297520019124317e-01
9.817684594348222715e-01,3.884297520019124317e-01
9.826800364630811080e-01,3.884297520019124317e-01
9.835916134913399445e-01,3.719008263848097573e-01
9.845031905195988919e-01,3.553719007677071384e-01
9.854147675478577284e-01,3.553719007677071384e-01
9.863263445761166759e-01,3.553719007677071384e-01
9.872379216043755124e-01,3.553719007677071384e-01
9.881494986326344598e-01,3.553719007677071384e-01
9.890610756608932963e-01,3.553719007677071384e-01
9.899726526891522438e-01,3.553719007677071384e-01
9.908842297174110803e-01,3.553719007677071384e-01
9.917958067456700277e-01,3.553719007677071384e-01
9.927073837739288642e-01,6.363636362584522699e-01
9.936189608021878117e-01,6.363636362584522699e-01
9.945305378304466482e-01,6.363636362584522699e-01
9.954421148587054846e-01,6.198347106413496510e-01
9.963536918869644321e-01,6.198347106413496510e-01
9.972652689152232686e-01,6.363636362584522699e-01
9.981768459434822161e-01,6.363636362584522699e-01
9.990884229717410525e-01,6.363636362584522699e-01
1.000000000000000000e+00,6.363636362584522699e-01
