time,value
0.000000000000000000e+00,-5.393103448127086752e-01
2.862049227246708403e-04,-5.393103448127086752e-01
5.724098454493416806e-04,-5.393103448127086752e-01
8.586147681740125210e-04,-5.393103448127086752e-01
1.144819690898683361e-03,-5.393103448127086752e-01
1.431024613623354310e-03,-5.393103448127086752e-01
1.717229536348025042e-03,-5.393103448127086752e-01
2.003434459072695774e-03,-5.393103448127086752e-01
2.289639381797366723e-03,-5.393103448127086752e-01
2.575844304522037671e-03,-5.393103448127086752e-01
2.862049227246708620e-03,-5.393103448127086752e-01
3.148254149971379135e-03,-5.393103448127086752e-01
3.434459072696050084e-03,-5.393103448127086752e-01
3.720663995420721033e-03,-5.393103448127086752e-01
4.006868918145391548e-03,-5.393103448127086752e-01
4.293073840870062496e-03,-5.393103448127086752e-01
4.579278763594733445e-03,-5.393103448127086752e-01
4.865483686319404394e-03,-5.393103448127086752e-01
5.151688609044075343e-03,-5.393103448127086752e-01
5.437893531768746291e-03,-5.393103448127086752e-01
5.724098454493417240e-03,-5.393103448127086752e-01
6.010303377218087321e-03,-5.393103448127086752e-01
6.296508299942758270e-03,-5.365517241231295698e-01
6.582713222667429219e-03,-5.365517241231295698e-01
6.868918145392100168e-03,-5.393103448127086752e-01
7.155123068116771116e-03,-5.393103448127086752e-01
7.441327990841442065e-03,-5.393103448127086752e-01
7.727532913566113014e-03,-5.393103448127086752e-01
8.013737836290783095e-03,-5.393103448127086752e-01
8.299942759015454044e-03,-5.393103448127086752e-01
8.586147681740124993e-03,-5.393103448127086752e-01
8.872352604464795942e-03,-5.393103448127086752e-01
9.158557527189466890e-03,-5.393103448127086752e-01
9.444762449914137839e-03,-5.393103448127086752e-01
9.730967372638808788e-03,-5.393103448127086752e-01
1.001717229536347974e-02,-5.393103448127086752e-01
1.030337721808815069e-02,-5.393103448127086752e-01
1.058958214081282163e-02,-5.393103448127086752e-01
1.087578706353749258e-02,-5.393103448127086752e-01
1.116199198626216353e-02,-5.393103448127086752e-01
1.144819690898683448e-02,-5.393103448127086752e-01
1.173440183171150369e-02,-5.393103448127086752e-01
1.202060675443617464e-02,-5.393103448127086752e-01
1.230681167716084559e-02,-5.393103448127086752e-01
1.259301659988551654e-02,-5.393103448127086752e-01
1.287922152261018749e-02,-5.393103448127086752e-01
1.316542644533485844e-02,-5.393103448127086752e-01
1.345163136805952939e-02,-5.393103448127086752e-01
1.373783629078420034e-02,-5.393103448127086752e-01
1.402404121350887128e-02,-5.393103448127086752e-01
1.431024613623354223e-02,-5.393103448127086752e-01
1.459645105895821318e-02,-5.393103448127086752e-01
1.488265598168288413e-02,-5.393103448127086752e-01
1.516886090440755508e-02,-5.393103448127086752e-01
1.545506582713222603e-02,-5.393103448127086752e-01
1.574127074985689698e-02,-5.393103448127086752e-01
1.602747567258156619e-02,-5.393103448127086752e-01
1.631368059530623887e-02,-5.393103448127086752e-01
1.659988551803090809e-02,-5.393103448127086752e-01
1.688609044075558077e-02,-5.393103448127086752e-01
1.717229536348024999e-02,-5.393103448127086752e-01
1.745850028620492267e-02,-5.365517241231295698e-01
1.774470520892959188e-02,-5.365517241231295698e-01
1.803091013165426457e-02,-5.365517241231295698e-01
1.831711505437893378e-02,-5.365517241231295698e-01
1.860331997710360299e-02,-5.365517241231295698e-01
1.888952489982827568e-02,-5.337931034335505753e-01
1.917572982255294489e-02,-5.282758620543923644e-01
1.946193474527761758e-02,-5.255172413648132590e-01
1.974813966800228679e-02,-5.199999999856551591e-01
2.003434459072695947e-02,-5.172413792960760537e-01
2.032054951345162869e-02,-5.117241379169179538e-01
2.060675443617630137e-02,-5.062068965377598539e-01
2.089295935890097058e-02,-5.034482758481807485e-01
2.117916428162564327e-02,-4.979310344690225931e-01
2.146536920435031248e-02,-4.951724137794434877e-01
2.175157412707498517e-02,-4.896551724002853878e-01
2.203777904979965438e-02,-4.868965517107062824e-01
2.232398397252432706e-02,-4.813793103315481270e-01
2.261018889524899628e-02,-4.786206896419690771e-01
2.289639381797366896e-02,-4.758620689523900271e-01
2.318259874069833817e-02,-4.703448275732318717e-01
2.346880366342300739e-02,-4.648275861940737164e-01
2.375500858614768007e-02,-4.620689655044946664e-01
2.404121350887234929e-02,-4.565517241253365111e-01
2.432741843159702197e-02,-4.537931034357574056e-01
2.461362335432169118e-02,-4.482758620565992502e-01
2.489982827704636387e-02,-4.455172413670202003e-01
2.518603319977103308e-02,-4.399999999878620449e-01
2.547223812249570576e-02,-4.372413792982829950e-01
2.575844304522037498e-02,-4.317241379191248396e-01
2.604464796794504766e-02,-4.289655172295457897e-01
2.633085289066971688e-02,-4.234482758503876343e-01
2.661705781339438956e-02,-4.179310344712294789e-01
2.690326273611905877e-02,-4.151724137816504290e-01
2.718946765884373146e-02,-4.096551724024922736e-01
2.747567258156840067e-02,-4.068965517129131682e-01
2.776187750429306988e-02,-4.013793103337550683e-01
2.804808242701774257e-02,-3.986206896441759628e-01
2.833428734974241178e-02,-3.958620689545969129e-01
2.862049227246708447e-02,-3.931034482650178075e-01
2.890669719519175368e-02,-3.903448275754387575e-01
2.919290211791642636e-02,-3.875862068858597076e-01
2.947910704064109558e-02,-3.875862068858597076e-01
2.976531196336576826e-02,-3.848275861962806021e-01
3.005151688609043747e-02,-3.848275861962806021e-01
3.033772180881511016e-02,-3.820689655067015522e-01
3.062392673153977937e-02,-3.820689655067015522e-01
3.091013165426445206e-02,-3.793103448171224468e-01
3.119633657698912127e-02,-3.793103448171224468e-01
3.148254149971379395e-02,-3.793103448171224468e-01
3.176874642243846664e-02,-3.793103448171224468e-01
3.205495134516313238e-02,-3.793103448171224468e-01
3.234115626788780506e-02,-3.765517241275433968e-01
3.262736119061247775e-02,-3.765517241275433968e-01
3.291356611333714349e-02,-3.765517241275433968e-01
3.319977103606181618e-02,-3.765517241275433968e-01
3.348597595878648886e-02,-3.765517241275433968e-01
3.377218088151116154e-02,-3.765517241275433968e-01
3.405838580423582729e-02,-3.765517241275433968e-01
3.434459072696049997e-02,-3.765517241275433968e-01
3.463079564968517265e-02,-3.765517241275433968e-01
3.491700057240984534e-02,-3.793103448171224468e-01
3.520320549513451108e-02,-3.793103448171224468e-01
3.548941041785918377e-02,-3.793103448171224468e-01
3.577561534058385645e-02,-3.793103448171224468e-01
3.606182026330852913e-02,-3.793103448171224468e-01
3.634802518603319488e-02,-3.820689655067015522e-01
3.663423010875786756e-02,-3.848275861962806021e-01
3.692043503148254024e-02,-3.848275861962806021e-01
3.720663995420720599e-02,-3.875862068858597076e-01
3.749284487693187867e-02,-3.875862068858597076e-01
3.777904979965655136e-02,-3.903448275754387575e-01
3.806525472238122404e-02,-3.931034482650178075e-01
3.835145964510588978e-02,-3.958620689545969129e-01
3.863766456783056247e-02,-3.986206896441759628e-01
3.892386949055523515e-02,-4.013793103337550683e-01
3.921007441327990783e-02,-4.041379310233341182e-01
3.949627933600457358e-02,-4.096551724024922736e-01
3.978248425872924626e-02,-4.151724137816504290e-01
4.006868918145391895e-02,-4.206896551608085288e-01
4.035489410417859163e-02,-4.262068965399666842e-01
4.064109902690325737e-02,-4.289655172295457897e-01
4.092730394962793006e-02,-4.344827586087038895e-01
4.121350887235260274e-02,-4.399999999878620449e-01
4.149971379507726849e-02,-4.455172413670202003e-01
4.178591871780194117e-02,-4.510344827461783557e-01
4.207212364052661385e-02,-4.565517241253365111e-01
4.235832856325128654e-02,-4.593103448149155610e-01
4.264453348597595228e-02,-4.648275861940737164e-01
4.293073840870062496e-02,-4.675862068836527663e-01
4.321694333142529765e-02,-4.758620689523900271e-01
4.350314825414997033e-02,-4.786206896419690771e-01
4.378935317687463608e-02,-4.841379310211272324e-01
4.407555809959930876e-02,-4.896551724002853878e-01
4.436176302232398144e-02,-4.951724137794434877e-01
4.464796794504865413e-02,-5.006896551586016431e-01
4.493417286777331987e-02,-5.034482758481807485e-01
4.522037779049799255e-02,-5.089655172273388484e-01
4.550658271322266524e-02,-5.117241379169179538e-01
4.579278763594733792e-02,-5.172413792960760537e-01
4.607899255867200367e-02,-5.199999999856551591e-01
4.636519748139667635e-02,-5.255172413648132590e-01
4.665140240412134903e-02,-5.282758620543923644e-01
4.693760732684601478e-02,-5.310344827439714699e-01
4.722381224957068746e-02,-5.337931034335505753e-01
4.751001717229536014e-02,-5.365517241231295698e-01
4.779622209502003283e-02,-5.365517241231295698e-01
4.808242701774469857e-02,-5.365517241231295698e-01
4.836863194046937126e-02,-5.365517241231295698e-01
4.865483686319404394e-02,-5.365517241231295698e-01
4.894104178591871662e-02,-5.393103448127086752e-01
4.922724670864338237e-02,-5.393103448127086752e-01
4.951345163136805505e-02,-5.393103448127086752e-01
4.979965655409272773e-02,-5.365517241231295698e-01
5.008586147681740042e-02,-5.365517241231295698e-01
5.037206639954206616e-02,-5.365517241231295698e-01
5.065827132226673885e-02,-5.365517241231295698e-01
5.094447624499141153e-02,-5.365517241231295698e-01
5.123068116771607727e-02,-5.365517241231295698e-01
5.151688609044074996e-02,-5.365517241231295698e-01
5.180309101316542264e-02,-5.365517241231295698e-01
5.208929593589009532e-02,-5.365517241231295698e-01
5.237550085861476107e-02,-5.365517241231295698e-01
5.266170578133943375e-02,-5.365517241231295698e-01
5.294791070406410644e-02,-5.365517241231295698e-01
5.323411562678877912e-02,-5.365517241231295698e-01
5.352032054951344486e-02,-5.365517241231295698e-01
5.380652547223811755e-02,-5.365517241231295698e-01
5.409273039496279023e-02,-5.365517241231295698e-01
5.437893531768746291e-02,-5.365517241231295698e-01
5.466514024041212866e-02,-5.365517241231295698e-01
5.495134516313680134e-02,-5.365517241231295698e-01
5.523755008586147403e-02,-5.365517241231295698e-01
5.552375500858613977e-02,-5.365517241231295698e-01
5.580995993131081245e-02,-5.365517241231295698e-01
5.609616485403548514e-02,-5.365517241231295698e-01
5.638236977676015782e-02,-5.365517241231295698e-01
5.666857469948482356e-02,-5.365517241231295698e-01
5.695477962220949625e-02,-5.365517241231295698e-01
5.724098454493416893e-02,-5.365517241231295698e-01
5.752718946765884162e-02,-5.393103448127086752e-01
5.781339439038350736e-02,-5.393103448127086752e-01
5.809959931310818004e-02,-5.393103448127086752e-01
5.838580423583285273e-02,-5.420689655022877806e-01
5.867200915855752541e-02,-5.420689655022877806e-01
5.895821408128219115e-02,-5.420689655022877806e-01
5.924441900400686384e-02,-5.448275861918667751e-01
5.953062392673153652e-02,-5.475862068814458805e-01
5.981682884945620227e-02,-5.503448275710249860e-01
6.010303377218087495e-02,-5.531034482606039804e-01
6.038923869490554763e-02,-5.586206896397621913e-01
6.067544361763022032e-02,-5.613793103293412967e-01
6.096164854035488606e-02,-5.641379310189202911e-01
6.124785346307955874e-02,-5.668965517084993966e-01
6.153405838580423143e-02,-5.724137930876574965e-01
6.182026330852890411e-02,-5.751724137772366019e-01
6.210646823125356986e-02,-5.806896551563947018e-01
6.239267315397824254e-02,-5.834482758459738072e-01
6.267887807670291522e-02,-5.862068965355529127e-01
6.296508299942758791e-02,-6.910344827395576983e-01
6.325128792215226059e-02,-6.937931034291366927e-01
6.353749284487693327e-02,-6.965517241187157982e-01
6.382369776760159208e-02,-6.993103448082949036e-01
6.410990269032626476e-02,-7.020689654978738981e-01
6.439610761305093745e-02,-7.020689654978738981e-01
6.468231253577561013e-02,-7.048275861874530035e-01
6.496851745850028281e-02,-7.048275861874530035e-01
6.525472238122495550e-02,-7.048275861874530035e-01
6.554092730394962818e-02,-7.048275861874530035e-01
6.582713222667428699e-02,-7.048275861874530035e-01
6.611333714939895967e-02,-7.020689654978738981e-01
6.639954207212363235e-02,-7.020689654978738981e-01
6.668574699484830504e-02,-7.020689654978738981e-01
6.697195191757297772e-02,-6.993103448082949036e-01
6.725815684029765040e-02,-6.965517241187157982e-01
6.754436176302232309e-02,-6.937931034291366927e-01
6.783056668574699577e-02,-6.910344827395576983e-01
6.811677160847165458e-02,-6.882758620499785929e-01
6.840297653119632726e-02,-6.855172413603994874e-01
6.868918145392099994e-02,-6.689655172229250768e-01
6.897538637664567263e-02,-6.303448275688180447e-01
6.926159129937034531e-02,-5.862068965355529127e-01
6.954779622209501799e-02,-5.613793103293412967e-01
6.983400114481969068e-02,-5.475862068814458805e-01
7.012020606754434948e-02,-5.199999999856551591e-01
7.040641099026902217e-02,-4.731034482628109217e-01
7.069261591299369485e-02,-4.344827586087038895e-01
7.097882083571836753e-02,-4.124137930920713235e-01
7.126502575844304022e-02,-3.931034482650178075e-01
7.155123068116771290e-02,-3.627586206796480361e-01
7.183743560389238558e-02,-3.131034482672247488e-01
7.212364052661705827e-02,-2.855172413714340274e-01
7.240984544934171707e-02,-2.689655172339595612e-01
7.269605037206638976e-02,-2.468965517173269952e-01
7.298225529479106244e-02,-2.082758620632199631e-01
7.326846021751573512e-02,-1.613793103403757534e-01
7.355466514024040781e-02,-1.337931034445850043e-01
7.384087006296508049e-02,-1.199999999966896574e-01
7.412707498568975317e-02,-9.241379310089892218e-02
7.441327990841441198e-02,-4.827586206763376936e-02
7.469948483113908466e-02,-4.137931034368608728e-03
7.498568975386375735e-02,1.517241379268489780e-02
7.527189467658843003e-02,3.724137930931747942e-02
7.555809959931310271e-02,7.862068965300356149e-02
7.584430452203777540e-02,1.503448275820594426e-01
7.613050944476244808e-02,1.944827586153246024e-01
7.641671436748712076e-02,-4.827586206763376936e-02
7.670291929021177957e-02,-4.551724137805469861e-02
7.698912421293645225e-02,1.668965517195338810e-01
7.727532913566112494e-02,9.006896551475671586e-01
7.756153405838579762e-02,9.365517241120950853e-01
7.784773898111047030e-02,9.586206896287277068e-01
7.813394390383514299e-02,9.751724137662021175e-01
7.842014882655981567e-02,9.862068965245184282e-01
7.870635374928447447e-02,9.917241379036765281e-01
7.899255867200914716e-02,9.944827585932556335e-01
7.927876359473381984e-02,9.972413792828347390e-01
7.956496851745849253e-02,9.972413792828347390e-01
7.985117344018316521e-02,9.999999999724137334e-01
8.013737836290783789e-02,9.999999999724137334e-01
8.042358328563251058e-02,9.999999999724137334e-01
8.070978820835718326e-02,9.999999999724137334e-01
8.099599313108184206e-02,9.999999999724137334e-01
8.128219805380651475e-02,9.999999999724137334e-01
8.156840297653118743e-02,9.999999999724137334e-01
8.185460789925586012e-02,9.999999999724137334e-01
8.214081282198053280e-02,9.999999999724137334e-01
8.242701774470520548e-02,9.999999999724137334e-01
8.271322266742987817e-02,9.972413792828347390e-01
8.299942759015453697e-02,9.944827585932556335e-01
8.328563251287920965e-02,9.917241379036765281e-01
8.357183743560388234e-02,9.889655172140975337e-01
8.385804235832855502e-02,9.862068965245184282e-01
8.414424728105322770e-02,-8.482758620455648213e-01
8.443045220377790039e-02,-8.482758620455648213e-01
8.471665712650257307e-02,-8.399999999768276160e-01
8.500286204922724576e-02,-8.289655172185113052e-01
8.528906697195190456e-02,-8.234482758393530943e-01
8.557527189467657724e-02,-8.179310344601949945e-01
8.586147681740124993e-02,-8.096551723914577892e-01
8.614768174012592261e-02,-8.013793103227205838e-01
8.643388666285059529e-02,-7.958620689435623730e-01
8.672009158557526798e-02,-7.931034482539833785e-01
8.700629650829994066e-02,-7.875862068748251676e-01
8.729250143102459947e-02,-7.875862068748251676e-01
8.757870635374927215e-02,-7.848275861852461732e-01
8.786491127647394483e-02,-7.820689654956670678e-01
8.815111619919861752e-02,-7.820689654956670678e-01
8.843732112192329020e-02,-7.793103448060879623e-01
8.872352604464796288e-02,-7.793103448060879623e-01
8.900973096737263557e-02,-7.765517241165088569e-01
8.929593589009730825e-02,-7.765517241165088569e-01
8.958214081282196706e-02,-7.737931034269298625e-01
8.986834573554663974e-02,-7.737931034269298625e-01
9.015455065827131242e-02,-7.710344827373507570e-01
9.044075558099598511e-02,-7.682758620477716516e-01
9.072696050372065779e-02,-7.682758620477716516e-01
9.101316542644533047e-02,-7.655172413581926572e-01
9.129937034917000316e-02,-7.655172413581926572e-01
9.158557527189467584e-02,-7.655172413581926572e-01
9.187178019461933465e-02,-7.627586206686135517e-01
9.215798511734400733e-02,-7.599999999790344463e-01
9.244419004006868001e-02,-7.599999999790344463e-01
9.273039496279335270e-02,-7.572413792894553408e-01
9.301659988551802538e-02,-7.572413792894553408e-01
9.330280480824269806e-02,-7.544827585998763464e-01
9.358900973096737075e-02,-7.544827585998763464e-01
9.387521465369202955e-02,-7.517241379102972409e-01
9.416141957641670224e-02,-7.489655172207181355e-01
9.444762449914137492e-02,-7.489655172207181355e-01
9.473382942186604760e-02,-7.462068965311391411e-01
9.502003434459072029e-02,-7.434482758415600356e-01
9.530623926731539297e-02,-7.434482758415600356e-01
9.559244419004006565e-02,-7.406896551519809302e-01
9.587864911276473834e-02,-7.379310344624019358e-01
9.616485403548939714e-02,-7.379310344624019358e-01
9.645105895821406983e-02,-7.351724137728228303e-01
9.673726388093874251e-02,-7.324137930832437249e-01
9.702346880366341519e-02,-7.296551723936646194e-01
9.730967372638808788e-02,-7.296551723936646194e-01
9.759587864911276056e-02,-7.268965517040856250e-01
9.788208357183743324e-02,-7.241379310145065196e-01
9.816828849456209205e-02,-7.241379310145065196e-01
9.845449341728676473e-02,-7.213793103249274141e-01
9.874069834001143742e-02,-7.213793103249274141e-01
9.902690326273611010e-02,-7.213793103249274141e-01
9.931310818546078278e-02,-7.186206896353484197e-01
9.959931310818545547e-02,-7.158620689457693143e-01
9.988551803091012815e-02,-7.131034482561902088e-01
1.001717229536348008e-01,-7.131034482561902088e-01
1.004579278763594596e-01,-7.103448275666112144e-01
1.007441327990841323e-01,-7.075862068770321089e-01
1.010303377218088050e-01,-7.048275861874530035e-01
1.013165426445334777e-01,-7.020689654978738981e-01
1.016027475672581504e-01,-7.020689654978738981e-01
1.018889524899828231e-01,-6.993103448082949036e-01
1.021751574127074957e-01,-6.965517241187157982e-01
1.024613623354321545e-01,-6.937931034291366927e-01
1.027475672581568272e-01,-6.937931034291366927e-01
1.030337721808814999e-01,-6.910344827395576983e-01
1.033199771036061726e-01,-6.882758620499785929e-01
1.036061820263308453e-01,-6.855172413603994874e-01
1.038923869490555180e-01,-6.827586206708203820e-01
1.041785918717801906e-01,-6.799999999812413876e-01
1.044647967945048633e-01,-6.799999999812413876e-01
1.047510017172295221e-01,-6.772413792916622821e-01
1.050372066399541948e-01,-6.744827586020831767e-01
1.053234115626788675e-01,-6.717241379125041822e-01
1.056096164854035402e-01,-6.689655172229250768e-01
1.058958214081282129e-01,-6.662068965333459714e-01
1.061820263308528856e-01,-6.634482758437669769e-01
1.064682312535775582e-01,-6.634482758437669769e-01
1.067544361763022170e-01,-6.606896551541878715e-01
1.070406410990268897e-01,-6.579310344646087660e-01
1.073268460217515624e-01,-6.551724137750296606e-01
1.076130509444762351e-01,-6.524137930854506662e-01
1.078992558672009078e-01,-6.496551723958715607e-01
1.081854607899255805e-01,-6.468965517062924553e-01
1.084716657126502531e-01,-6.441379310167134609e-01
1.087578706353749258e-01,-6.413793103271343554e-01
1.090440755580995846e-01,-6.386206896375552500e-01
1.093302804808242573e-01,-6.386206896375552500e-01
1.096164854035489300e-01,-6.358620689479762556e-01
1.099026903262736027e-01,-6.331034482583971501e-01
1.101888952489982754e-01,-6.303448275688180447e-01
1.104751001717229481e-01,-6.275862068792389392e-01
1.107613050944476207e-01,-6.248275861896599448e-01
1.110475100171722795e-01,-6.220689655000808393e-01
1.113337149398969522e-01,-6.193103448105017339e-01
1.116199198626216249e-01,-6.165517241209227395e-01
1.119061247853462976e-01,-6.137931034313436340e-01
1.121923297080709703e-01,-6.110344827417645286e-01
1.124785346307956430e-01,-6.082758620521855342e-01
1.127647395535203156e-01,-6.027586206730273233e-01
1.130509444762449883e-01,-5.999999999834482178e-01
1.133371493989696471e-01,-5.972413792938692234e-01
1.136233543216943198e-01,-5.944827586042901180e-01
1.139095592444189925e-01,-5.917241379147110125e-01
1.141957641671436652e-01,-5.889655172251320181e-01
1.144819690898683379e-01,-5.862068965355529127e-01
1.147681740125930105e-01,-5.806896551563947018e-01
1.150543789353176832e-01,-5.779310344668157073e-01
1.153405838580423420e-01,-5.751724137772366019e-01
1.156267887807670147e-01,-5.724137930876574965e-01
1.159129937034916874e-01,-5.696551723980785020e-01
1.161991986262163601e-01,-5.668965517084993966e-01
1.164854035489410328e-01,-5.641379310189202911e-01
1.167716084716657055e-01,-5.613793103293412967e-01
1.170578133943903781e-01,-5.558620689501830858e-01
1.173440183171150508e-01,-5.531034482606039804e-01
1.176302232398397096e-01,-5.503448275710249860e-01
1.179164281625643823e-01,-5.475862068814458805e-01
1.182026330852890550e-01,-5.420689655022877806e-01
1.184888380080137277e-01,-5.393103448127086752e-01
1.187750429307384004e-01,-5.337931034335505753e-01
1.190612478534630730e-01,-5.310344827439714699e-01
1.193474527761877457e-01,-5.282758620543923644e-01
1.196336576989124045e-01,-5.227586206752342646e-01
1.199198626216370772e-01,-5.199999999856551591e-01
1.202060675443617499e-01,-5.172413792960760537e-01
1.204922724670864226e-01,-5.117241379169179538e-01
1.207784773898110953e-01,-5.089655172273388484e-01
1.210646823125357679e-01,-5.034482758481807485e-01
1.213508872352604406e-01,-5.006896551586016431e-01
1.216370921579851133e-01,-4.979310344690225931e-01
1.219232970807097721e-01,-4.924137930898644377e-01
1.222095020034344448e-01,-4.896551724002853878e-01
1.224957069261591175e-01,-4.841379310211272324e-01
1.227819118488837902e-01,-4.786206896419690771e-01
1.230681167716084629e-01,-4.758620689523900271e-01
1.233543216943331355e-01,-4.703448275732318717e-01
1.236405266170578082e-01,-4.675862068836527663e-01
1.239267315397824670e-01,-4.620689655044946664e-01
1.242129364625071397e-01,-4.593103448149155610e-01
1.244991413852318124e-01,-4.537931034357574056e-01
1.247853463079564851e-01,-4.510344827461783557e-01
1.250715512306811439e-01,-4.455172413670202003e-01
1.253577561534058304e-01,-4.399999999878620449e-01
1.256439610761304893e-01,-4.372413792982829950e-01
1.259301659988551758e-01,-4.289655172295457897e-01
1.262163709215798346e-01,-4.262068965399666842e-01
1.265025758443045212e-01,-4.206896551608085288e-01
1.267887807670291800e-01,-4.151724137816504290e-01
1.270749856897538665e-01,-4.124137930920713235e-01
1.273611906124785254e-01,-4.068965517129131682e-01
1.276473955352031842e-01,-4.041379310233341182e-01
1.279336004579278707e-01,-4.013793103337550683e-01
1.282198053806525295e-01,-3.986206896441759628e-01
1.285060103033772161e-01,-3.958620689545969129e-01
1.287922152261018749e-01,-3.931034482650178075e-01
1.290784201488265615e-01,-3.931034482650178075e-01
1.293646250715512203e-01,-3.931034482650178075e-01
1.296508299942758791e-01,-3.931034482650178075e-01
1.299370349170005656e-01,-3.931034482650178075e-01
1.302232398397252244e-01,-3.931034482650178075e-01
1.305094447624499110e-01,-3.931034482650178075e-01
1.307956496851745698e-01,-3.931034482650178075e-01
1.310818546078992564e-01,-3.931034482650178075e-01
1.313680595306239152e-01,-3.931034482650178075e-01
1.316542644533485740e-01,-3.931034482650178075e-01
1.319404693760732605e-01,-3.931034482650178075e-01
1.322266742987979193e-01,-3.931034482650178075e-01
1.325128792215226059e-01,-3.931034482650178075e-01
1.327990841442472647e-01,-3.958620689545969129e-01
1.330852890669719513e-01,-3.958620689545969129e-01
1.333714939896966101e-01,-3.958620689545969129e-01
1.336576989124212689e-01,-3.986206896441759628e-01
1.339439038351459554e-01,-3.986206896441759628e-01
1.342301087578706142e-01,-3.986206896441759628e-01
1.345163136805953008e-01,-4.013793103337550683e-01
1.348025186033199596e-01,-4.013793103337550683e-01
1.350887235260446462e-01,-4.013793103337550683e-01
1.353749284487693050e-01,-4.013793103337550683e-01
1.356611333714939915e-01,-4.041379310233341182e-01
1.359473382942186503e-01,-4.041379310233341182e-01
1.362335432169433092e-01,-4.068965517129131682e-01
1.365197481396679957e-01,-4.068965517129131682e-01
1.368059530623926545e-01,-4.096551724024922736e-01
1.370921579851173411e-01,-4.096551724024922736e-01
1.373783629078419999e-01,-4.124137930920713235e-01
1.376645678305666864e-01,-4.124137930920713235e-01
1.379507727532913453e-01,-4.151724137816504290e-01
1.382369776760160041e-01,-4.179310344712294789e-01
1.385231825987406906e-01,-4.179310344712294789e-01
1.388093875214653494e-01,-4.206896551608085288e-01
1.390955924441900360e-01,-4.234482758503876343e-01
1.393817973669146948e-01,-4.234482758503876343e-01
1.396680022896393814e-01,-4.262068965399666842e-01
1.399542072123640402e-01,-4.289655172295457897e-01
1.402404121350886990e-01,-4.317241379191248396e-01
1.405266170578133855e-01,-4.317241379191248396e-01
1.408128219805380443e-01,-4.344827586087038895e-01
1.410990269032627309e-01,-4.372413792982829950e-01
1.413852318259873897e-01,-4.399999999878620449e-01
1.416714367487120763e-01,-4.427586206774411504e-01
1.419576416714367351e-01,-4.455172413670202003e-01
1.422438465941613939e-01,-4.482758620565992502e-01
1.425300515168860804e-01,-4.510344827461783557e-01
1.428162564396107392e-01,-4.537931034357574056e-01
1.431024613623354258e-01,-4.565517241253365111e-01
1.433886662850600846e-01,-4.593103448149155610e-01
1.436748712077847712e-01,-4.620689655044946664e-01
1.439610761305094300e-01,-4.648275861940737164e-01
1.442472810532341165e-01,-4.675862068836527663e-01
1.445334859759587753e-01,-4.731034482628109217e-01
1.448196908986834341e-01,-4.758620689523900271e-01
1.451058958214081207e-01,-4.786206896419690771e-01
1.453921007441327795e-01,-4.841379310211272324e-01
1.456783056668574661e-01,-4.868965517107062824e-01
1.459645105895821249e-01,-4.924137930898644377e-01
1.462507155123068114e-01,-4.951724137794434877e-01
1.465369204350314702e-01,-5.006896551586016431e-01
1.468231253577561291e-01,-5.034482758481807485e-01
1.471093302804808156e-01,-5.089655172273388484e-01
1.473955352032054744e-01,-5.144827586064970593e-01
1.476817401259301610e-01,-5.199999999856551591e-01
1.479679450486548198e-01,-5.255172413648132590e-01
1.482541499713795063e-01,-5.282758620543923644e-01
1.485403548941041652e-01,-5.337931034335505753e-01
1.488265598168288240e-01,-5.393103448127086752e-01
1.491127647395535105e-01,-5.448275861918667751e-01
1.493989696622781693e-01,-5.503448275710249860e-01
1.496851745850028559e-01,-5.558620689501830858e-01
1.499713795077275147e-01,-5.641379310189202911e-01
1.502575844304522013e-01,-5.724137930876574965e-01
1.505437893531768601e-01,-5.779310344668157073e-01
1.508299942759015466e-01,-5.862068965355529127e-01
1.511161991986262054e-01,-5.944827586042901180e-01
1.514024041213508642e-01,-5.999999999834482178e-01
1.516886090440755508e-01,-6.082758620521855342e-01
1.519748139668002096e-01,-6.165517241209227395e-01
1.522610188895248962e-01,-6.220689655000808393e-01
1.525472238122495550e-01,-6.275862068792389392e-01
1.528334287349742415e-01,-6.331034482583971501e-01
1.531196336576989003e-01,-6.358620689479762556e-01
1.534058385804235591e-01,-6.413793103271343554e-01
1.536920435031482457e-01,-6.468965517062924553e-01
1.539782484258729045e-01,-6.496551723958715607e-01
1.542644533485975911e-01,-6.551724137750296606e-01
1.545506582713222499e-01,-6.579310344646087660e-01
1.548368631940469364e-01,-6.634482758437669769e-01
1.551230681167715952e-01,-6.662068965333459714e-01
1.554092730394962540e-01,-6.717241379125041822e-01
1.556954779622209406e-01,-6.744827586020831767e-01
1.559816828849455994e-01,-6.772413792916622821e-01
1.562678878076702860e-01,-6.799999999812413876e-01
1.565540927303949448e-01,-6.827586206708203820e-01
1.568402976531196313e-01,-6.855172413603994874e-01
1.571265025758442901e-01,-6.882758620499785929e-01
1.574127074985689489e-01,-6.910344827395576983e-01
1.576989124212936355e-01,-6.965517241187157982e-01
1.579851173440182943e-01,-6.993103448082949036e-01
1.582713222667429809e-01,-6.993103448082949036e-01
1.585575271894676397e-01,-7.020689654978738981e-01
1.588437321121923262e-01,-7.048275861874530035e-01
1.591299370349169851e-01,-7.075862068770321089e-01
1.594161419576416716e-01,-7.103448275666112144e-01
1.597023468803663304e-01,-7.131034482561902088e-01
1.599885518030909892e-01,-7.158620689457693143e-01
1.602747567258156758e-01,-7.186206896353484197e-01
1.605609616485403346e-01,-7.213793103249274141e-01
1.608471665712650212e-01,-7.213793103249274141e-01
1.611333714939896800e-01,-7.241379310145065196e-01
1.614195764167143665e-01,-7.241379310145065196e-01
1.617057813394390253e-01,-7.268965517040856250e-01
1.619919862621636841e-01,-7.296551723936646194e-01
1.622781911848883707e-01,-7.296551723936646194e-01
1.625643961076130295e-01,-7.324137930832437249e-01
1.628506010303377161e-01,-7.351724137728228303e-01
1.631368059530623749e-01,-7.351724137728228303e-01
1.634230108757870614e-01,-7.379310344624019358e-01
1.637092157985117202e-01,-7.406896551519809302e-01
1.639954207212363790e-01,-7.406896551519809302e-01
1.642816256439610656e-01,-7.434482758415600356e-01
1.645678305666857244e-01,-7.434482758415600356e-01
1.648540354894104110e-01,-7.462068965311391411e-01
1.651402404121350698e-01,-7.462068965311391411e-01
1.654264453348597563e-01,-7.462068965311391411e-01
1.657126502575844151e-01,-7.489655172207181355e-01
1.659988551803090739e-01,-7.489655172207181355e-01
1.662850601030337605e-01,-7.517241379102972409e-01
1.665712650257584193e-01,-7.517241379102972409e-01
1.668574699484831059e-01,-7.544827585998763464e-01
1.671436748712077647e-01,-7.544827585998763464e-01
1.674298797939324512e-01,-7.544827585998763464e-01
1.677160847166571100e-01,-7.572413792894553408e-01
1.680022896393817966e-01,-7.572413792894553408e-01
1.682884945621064554e-01,-7.572413792894553408e-01
1.685746994848311142e-01,-7.599999999790344463e-01
1.688609044075558008e-01,-7.599999999790344463e-01
1.691471093302804596e-01,-7.599999999790344463e-01
1.694333142530051461e-01,-7.599999999790344463e-01
1.697195191757298049e-01,-7.599999999790344463e-01
1.700057240984544915e-01,-7.599999999790344463e-01
1.702919290211791503e-01,-7.599999999790344463e-01
1.705781339439038091e-01,-7.599999999790344463e-01
1.708643388666284957e-01,-7.599999999790344463e-01
1.711505437893531545e-01,-7.599999999790344463e-01
1.714367487120778411e-01,-7.599999999790344463e-01
1.717229536348024999e-01,-7.599999999790344463e-01
1.720091585575271864e-01,-7.599999999790344463e-01
1.722953634802518452e-01,-7.599999999790344463e-01
1.725815684029765040e-01,-7.599999999790344463e-01
1.728677733257011906e-01,-7.599999999790344463e-01
1.731539782484258494e-01,-7.599999999790344463e-01
1.734401831711505360e-01,-7.599999999790344463e-01
1.737263880938751948e-01,-7.599999999790344463e-01
1.740125930165998813e-01,-7.599999999790344463e-01
1.742987979393245401e-01,-7.599999999790344463e-01
1.745850028620491989e-01,-7.599999999790344463e-01
1.748712077847738855e-01,-7.599999999790344463e-01
1.751574127074985443e-01,-7.599999999790344463e-01
1.754436176302232309e-01,-7.599999999790344463e-01
1.757298225529478897e-01,-7.599999999790344463e-01
1.760160274756725762e-01,-7.572413792894553408e-01
1.763022323983972350e-01,-7.572413792894553408e-01
1.765884373211219216e-01,-7.572413792894553408e-01
1.768746422438465804e-01,-7.544827585998763464e-01
1.771608471665712392e-01,-7.517241379102972409e-01
1.774470520892959258e-01,-7.517241379102972409e-01
1.777332570120205846e-01,-7.517241379102972409e-01
1.780194619347452711e-01,-7.489655172207181355e-01
1.783056668574699299e-01,-7.489655172207181355e-01
1.785918717801946165e-01,-7.462068965311391411e-01
1.788780767029192753e-01,-7.462068965311391411e-01
1.791642816256439341e-01,-7.434482758415600356e-01
1.794504865483686207e-01,-7.406896551519809302e-01
1.797366914710932795e-01,-7.379310344624019358e-01
1.800228963938179660e-01,-7.379310344624019358e-01
1.803091013165426248e-01,-7.351724137728228303e-01
1.805953062392673114e-01,-7.324137930832437249e-01
1.808815111619919702e-01,-7.296551723936646194e-01
1.811677160847166290e-01,-7.268965517040856250e-01
1.814539210074413156e-01,-7.213793103249274141e-01
1.817401259301659744e-01,-7.186206896353484197e-01
1.820263308528906609e-01,-7.158620689457693143e-01
1.823125357756153198e-01,-7.131034482561902088e-01
1.825987406983400063e-01,-7.103448275666112144e-01
1.828849456210646651e-01,-7.048275861874530035e-01
1.831711505437893517e-01,-7.020689654978738981e-01
1.834573554665140105e-01,-6.993103448082949036e-01
1.837435603892386693e-01,-6.965517241187157982e-01
1.840297653119633559e-01,-6.910344827395576983e-01
1.843159702346880147e-01,-6.882758620499785929e-01
1.846021751574127012e-01,-6.855172413603994874e-01
1.848883800801373600e-01,-6.827586206708203820e-01
1.851745850028620466e-01,-6.772413792916622821e-01
1.854607899255867054e-01,-6.744827586020831767e-01
1.857469948483113642e-01,-6.717241379125041822e-01
1.860331997710360508e-01,-6.689655172229250768e-01
1.863194046937607096e-01,-6.662068965333459714e-01
1.866056096164853961e-01,-6.606896551541878715e-01
1.868918145392100549e-01,-6.579310344646087660e-01
1.871780194619347415e-01,-6.551724137750296606e-01
1.874642243846594003e-01,-6.524137930854506662e-01
1.877504293073840591e-01,-6.496551723958715607e-01
1.880366342301087457e-01,-6.468965517062924553e-01
1.883228391528334045e-01,-6.441379310167134609e-01
1.886090440755580910e-01,-6.413793103271343554e-01
1.888952489982827498e-01,-6.386206896375552500e-01
1.891814539210074364e-01,-6.358620689479762556e-01
1.894676588437320952e-01,-6.331034482583971501e-01
1.897538637664567540e-01,-6.303448275688180447e-01
1.900400686891814406e-01,-6.275862068792389392e-01
1.903262736119060994e-01,-6.248275861896599448e-01
1.906124785346307859e-01,-6.220689655000808393e-01
1.908986834573554447e-01,-6.193103448105017339e-01
1.911848883800801313e-01,-6.165517241209227395e-01
1.914710933028047901e-01,-6.137931034313436340e-01
1.917572982255294767e-01,-6.110344827417645286e-01
1.920435031482541355e-01,-6.082758620521855342e-01
1.923297080709787943e-01,-6.082758620521855342e-01
1.926159129937034808e-01,-6.055172413626064287e-01
1.929021179164281397e-01,-6.027586206730273233e-01
1.931883228391528262e-01,-6.027586206730273233e-01
1.934745277618774850e-01,-5.999999999834482178e-01
1.937607326846021716e-01,-5.972413792938692234e-01
1.940469376073268304e-01,-5.944827586042901180e-01
1.943331425300514892e-01,-5.917241379147110125e-01
1.946193474527761758e-01,-5.917241379147110125e-01
1.949055523755008346e-01,-5.889655172251320181e-01
1.951917572982255211e-01,-5.862068965355529127e-01
1.954779622209501799e-01,-5.862068965355529127e-01
1.957641671436748665e-01,-5.834482758459738072e-01
1.960503720663995253e-01,-5.806896551563947018e-01
1.963365769891241841e-01,-5.806896551563947018e-01
1.966227819118488707e-01,-5.779310344668157073e-01
1.969089868345735295e-01,-5.751724137772366019e-01
1.971951917572982160e-01,-5.751724137772366019e-01
1.974813966800228748e-01,-5.724137930876574965e-01
1.977676016027475614e-01,-5.696551723980785020e-01
1.980538065254722202e-01,-5.696551723980785020e-01
1.983400114481968790e-01,-5.668965517084993966e-01
1.986262163709215656e-01,-5.668965517084993966e-01
1.989124212936462244e-01,-5.641379310189202911e-01
1.991986262163709109e-01,-5.613793103293412967e-01
1.994848311390955697e-01,-5.613793103293412967e-01
1.997710360618202563e-01,-5.586206896397621913e-01
2.000572409845449151e-01,-5.586206896397621913e-01
2.003434459072696017e-01,-5.586206896397621913e-01
2.006296508299942605e-01,-5.558620689501830858e-01
2.009158557527189193e-01,-5.531034482606039804e-01
2.012020606754436058e-01,-5.531034482606039804e-01
2.014882655981682646e-01,-5.531034482606039804e-01
2.017744705208929512e-01,-5.503448275710249860e-01
2.020606754436176100e-01,-5.503448275710249860e-01
2.023468803663422966e-01,-5.503448275710249860e-01
2.026330852890669554e-01,-5.475862068814458805e-01
2.029192902117916142e-01,-5.475862068814458805e-01
2.032054951345163007e-01,-5.448275861918667751e-01
2.034917000572409596e-01,-5.448275861918667751e-01
2.037779049799656461e-01,-5.420689655022877806e-01
2.040641099026903049e-01,-5.420689655022877806e-01
2.043503148254149915e-01,-5.420689655022877806e-01
2.046365197481396503e-01,-5.393103448127086752e-01
2.049227246708643091e-01,-5.393103448127086752e-01
2.052089295935889957e-01,-5.365517241231295698e-01
2.054951345163136545e-01,-5.365517241231295698e-01
2.057813394390383410e-01,-5.365517241231295698e-01
2.060675443617629998e-01,-5.365517241231295698e-01
2.063537492844876864e-01,-5.365517241231295698e-01
2.066399542072123452e-01,-5.365517241231295698e-01
2.069261591299370040e-01,-5.365517241231295698e-01
2.072123640526616906e-01,-5.365517241231295698e-01
2.074985689753863494e-01,-5.337931034335505753e-01
2.077847738981110359e-01,-5.337931034335505753e-01
2.080709788208356947e-01,-5.337931034335505753e-01
2.083571837435603813e-01,-5.337931034335505753e-01
2.086433886662850401e-01,-5.337931034335505753e-01
2.089295935890097267e-01,-5.310344827439714699e-01
2.092157985117343855e-01,-5.310344827439714699e-01
2.095020034344590443e-01,-5.310344827439714699e-01
2.097882083571837308e-01,-5.310344827439714699e-01
2.100744132799083896e-01,-5.310344827439714699e-01
2.103606182026330762e-01,-5.310344827439714699e-01
2.106468231253577350e-01,-5.310344827439714699e-01
2.109330280480824216e-01,-5.310344827439714699e-01
2.112192329708070804e-01,-5.310344827439714699e-01
2.115054378935317392e-01,-5.310344827439714699e-01
2.117916428162564257e-01,-5.310344827439714699e-01
2.120778477389810845e-01,-5.310344827439714699e-01
2.123640526617057711e-01,-5.310344827439714699e-01
2.126502575844304299e-01,-5.310344827439714699e-01
2.129364625071551165e-01,-5.310344827439714699e-01
2.132226674298797753e-01,-5.310344827439714699e-01
2.135088723526044341e-01,-5.310344827439714699e-01
2.137950772753291206e-01,-5.310344827439714699e-01
2.140812821980537795e-01,-5.310344827439714699e-01
2.143674871207784660e-01,-5.310344827439714699e-01
2.146536920435031248e-01,-5.310344827439714699e-01
2.149398969662278114e-01,-5.310344827439714699e-01
2.152261018889524702e-01,-5.310344827439714699e-01
2.155123068116771290e-01,-5.310344827439714699e-01
2.157985117344018156e-01,-5.310344827439714699e-01
2.160847166571264744e-01,-5.310344827439714699e-01
2.163709215798511609e-01,-5.310344827439714699e-01
2.166571265025758197e-01,-5.310344827439714699e-01
2.169433314253005063e-01,-5.310344827439714699e-01
2.172295363480251651e-01,-5.310344827439714699e-01
2.175157412707498517e-01,-5.310344827439714699e-01
2.178019461934745105e-01,-5.310344827439714699e-01
2.180881511161991693e-01,-5.310344827439714699e-01
2.183743560389238558e-01,-5.310344827439714699e-01
2.186605609616485146e-01,-5.310344827439714699e-01
2.189467658843732012e-01,-5.310344827439714699e-01
2.192329708070978600e-01,-5.310344827439714699e-01
2.195191757298225466e-01,-5.310344827439714699e-01
2.198053806525472054e-01,-5.310344827439714699e-01
2.200915855752718642e-01,-5.310344827439714699e-01
2.203777904979965507e-01,-5.310344827439714699e-01
2.206639954207212095e-01,-5.310344827439714699e-01
2.209502003434458961e-01,-5.310344827439714699e-01
2.212364052661705549e-01,-5.310344827439714699e-01
2.215226101888952415e-01,-5.310344827439714699e-01
2.218088151116199003e-01,-5.310344827439714699e-01
2.220950200343445591e-01,-5.310344827439714699e-01
2.223812249570692456e-01,-5.310344827439714699e-01
2.226674298797939044e-01,-5.310344827439714699e-01
2.229536348025185910e-01,-5.310344827439714699e-01
2.232398397252432498e-01,-5.310344827439714699e-01
2.235260446479679364e-01,-5.310344827439714699e-01
2.238122495706925952e-01,-5.310344827439714699e-01
2.240984544934172817e-01,-5.310344827439714699e-01
2.243846594161419405e-01,-5.310344827439714699e-01
2.246708643388665994e-01,-5.310344827439714699e-01
2.249570692615912859e-01,-5.310344827439714699e-01
2.252432741843159447e-01,-5.310344827439714699e-01
2.255294791070406313e-01,-5.310344827439714699e-01
2.258156840297652901e-01,-5.310344827439714699e-01
2.261018889524899766e-01,-5.310344827439714699e-01
2.263880938752146355e-01,-5.310344827439714699e-01
2.266742987979392943e-01,-5.310344827439714699e-01
2.269605037206639808e-01,-5.310344827439714699e-01
2.272467086433886396e-01,-5.310344827439714699e-01
2.275329135661133262e-01,-5.310344827439714699e-01
2.278191184888379850e-01,-5.310344827439714699e-01
2.281053234115626716e-01,-5.310344827439714699e-01
2.283915283342873304e-01,-5.310344827439714699e-01
2.286777332570119892e-01,-5.310344827439714699e-01
2.289639381797366757e-01,-5.310344827439714699e-01
2.292501431024613345e-01,-5.310344827439714699e-01
2.295363480251860211e-01,-5.310344827439714699e-01
2.298225529479106799e-01,-5.310344827439714699e-01
2.301087578706353665e-01,-5.310344827439714699e-01
2.303949627933600253e-01,-5.310344827439714699e-01
2.306811677160846841e-01,-5.310344827439714699e-01
2.309673726388093706e-01,-5.310344827439714699e-01
2.312535775615340294e-01,-5.310344827439714699e-01
2.315397824842587160e-01,-5.310344827439714699e-01
2.318259874069833748e-01,-5.310344827439714699e-01
2.321121923297080614e-01,-5.310344827439714699e-01
2.323983972524327202e-01,-5.310344827439714699e-01
2.326846021751574067e-01,-5.310344827439714699e-01
2.329708070978820655e-01,-5.310344827439714699e-01
2.332570120206067243e-01,-5.310344827439714699e-01
2.335432169433314109e-01,-5.310344827439714699e-01
2.338294218660560697e-01,-5.310344827439714699e-01
2.341156267887807563e-01,-5.310344827439714699e-01
2.344018317115054151e-01,-5.310344827439714699e-01
2.346880366342301016e-01,-5.310344827439714699e-01
2.349742415569547604e-01,-5.310344827439714699e-01
2.352604464796794193e-01,-5.310344827439714699e-01
2.355466514024041058e-01,-5.310344827439714699e-01
2.358328563251287646e-01,-5.310344827439714699e-01
2.361190612478534512e-01,-5.310344827439714699e-01
2.364052661705781100e-01,-5.310344827439714699e-01
2.366914710933027965e-01,-5.310344827439714699e-01
2.369776760160274554e-01,-5.310344827439714699e-01
2.372638809387521142e-01,-5.310344827439714699e-01
2.375500858614768007e-01,-5.310344827439714699e-01
2.378362907842014595e-01,-5.310344827439714699e-01
2.381224957069261461e-01,-5.310344827439714699e-01
2.384087006296508049e-01,-5.310344827439714699e-01
2.386949055523754915e-01,-5.310344827439714699e-01
2.389811104751001503e-01,-5.310344827439714699e-01
2.392673153978248091e-01,-5.310344827439714699e-01
2.395535203205494956e-01,-5.310344827439714699e-01
2.398397252432741544e-01,-5.310344827439714699e-01
2.401259301659988410e-01,-5.310344827439714699e-01
2.404121350887234998e-01,-5.310344827439714699e-01
2.406983400114481864e-01,-5.310344827439714699e-01
2.409845449341728452e-01,-5.310344827439714699e-01
2.412707498568975317e-01,-5.310344827439714699e-01
2.415569547796221905e-01,-5.310344827439714699e-01
2.418431597023468493e-01,-5.310344827439714699e-01
2.421293646250715359e-01,-5.310344827439714699e-01
2.424155695477961947e-01,-5.310344827439714699e-01
2.427017744705208813e-01,-5.310344827439714699e-01
2.429879793932455401e-01,-5.310344827439714699e-01
2.432741843159702266e-01,-5.310344827439714699e-01
2.435603892386948854e-01,-5.310344827439714699e-01
2.438465941614195442e-01,-5.310344827439714699e-01
2.441327990841442308e-01,-5.310344827439714699e-01
2.444190040068688896e-01,-5.282758620543923644e-01
2.447052089295935762e-01,-5.282758620543923644e-01
2.449914138523182350e-01,-5.282758620543923644e-01
2.452776187750429215e-01,-5.255172413648132590e-01
2.455638236977675803e-01,-5.227586206752342646e-01
2.458500286204922392e-01,-5.172413792960760537e-01
2.461362335432169257e-01,-5.117241379169179538e-01
2.464224384659415845e-01,-5.089655172273388484e-01
2.467086433886662711e-01,-5.034482758481807485e-01
2.469948483113909299e-01,-4.979310344690225931e-01
2.472810532341156164e-01,-4.951724137794434877e-01
2.475672581568402753e-01,-4.896551724002853878e-01
2.478534630795649341e-01,-4.868965517107062824e-01
2.481396680022896206e-01,-4.813793103315481270e-01
2.484258729250142794e-01,-4.758620689523900271e-01
2.487120778477389660e-01,-4.703448275732318717e-01
2.489982827704636248e-01,-4.675862068836527663e-01
2.492844876931883114e-01,-4.620689655044946664e-01
2.495706926159129702e-01,-4.593103448149155610e-01
2.498568975386376567e-01,-4.565517241253365111e-01
2.501431024613622878e-01,-4.510344827461783557e-01
2.504293073840869743e-01,-4.455172413670202003e-01
2.507155123068116609e-01,-4.427586206774411504e-01
2.510017172295363475e-01,-4.372413792982829950e-01
2.512879221522609785e-01,-4.344827586087038895e-01
2.515741270749856651e-01,-4.289655172295457897e-01
2.518603319977103516e-01,-4.234482758503876343e-01
2.521465369204349827e-01,-4.206896551608085288e-01
2.524327418431596692e-01,-4.151724137816504290e-01
2.527189467658843558e-01,-4.096551724024922736e-01
2.530051516886090424e-01,-4.068965517129131682e-01
2.532913566113336734e-01,-4.013793103337550683e-01
2.535775615340583600e-01,-3.986206896441759628e-01
2.538637664567830465e-01,-3.958620689545969129e-01
2.541499713795077331e-01,-3.931034482650178075e-01
2.544361763022323641e-01,-3.903448275754387575e-01
2.547223812249570507e-01,-3.875862068858597076e-01
2.550085861476817373e-01,-3.848275861962806021e-01
2.552947910704063683e-01,-3.848275861962806021e-01
2.555809959931310549e-01,-3.820689655067015522e-01
2.558672009158557414e-01,-3.820689655067015522e-01
2.561534058385804280e-01,-3.793103448171224468e-01
2.564396107613050591e-01,-3.793103448171224468e-01
2.567258156840297456e-01,-3.765517241275433968e-01
2.570120206067544322e-01,-3.765517241275433968e-01
2.572982255294790632e-01,-3.765517241275433968e-01
2.575844304522037498e-01,-3.765517241275433968e-01
2.578706353749284363e-01,-3.737931034379643469e-01
2.581568402976531229e-01,-3.737931034379643469e-01
2.584430452203777540e-01,-3.765517241275433968e-01
2.587292501431024405e-01,-3.737931034379643469e-01
2.590154550658271271e-01,-3.737931034379643469e-01
2.593016599885517581e-01,-3.737931034379643469e-01
2.595878649112764447e-01,-3.765517241275433968e-01
2.598740698340011313e-01,-3.765517241275433968e-01
2.601602747567258178e-01,-3.765517241275433968e-01
2.604464796794504489e-01,-3.765517241275433968e-01
2.607326846021751354e-01,-3.765517241275433968e-01
2.610188895248998220e-01,-3.793103448171224468e-01
2.613050944476244530e-01,-3.793103448171224468e-01
2.615912993703491396e-01,-3.820689655067015522e-01
2.618775042930738262e-01,-3.820689655067015522e-01
2.621637092157985127e-01,-3.848275861962806021e-01
2.624499141385231438e-01,-3.848275861962806021e-01
2.627361190612478303e-01,-3.875862068858597076e-01
2.630223239839725169e-01,-3.875862068858597076e-01
2.633085289066971479e-01,-3.903448275754387575e-01
2.635947338294218345e-01,-3.931034482650178075e-01
2.638809387521465211e-01,-3.986206896441759628e-01
2.641671436748712076e-01,-4.013793103337550683e-01
2.644533485975958387e-01,-4.068965517129131682e-01
2.647395535203205252e-01,-4.124137930920713235e-01
2.650257584430452118e-01,-4.179310344712294789e-01
2.653119633657698428e-01,-4.234482758503876343e-01
2.655981682884945294e-01,-4.289655172295457897e-01
2.658843732112192160e-01,-4.344827586087038895e-01
2.661705781339439025e-01,-4.372413792982829950e-01
2.664567830566685336e-01,-4.427586206774411504e-01
2.667429879793932201e-01,-4.482758620565992502e-01
2.670291929021179067e-01,-4.537931034357574056e-01
2.673153978248425378e-01,-4.593103448149155610e-01
2.676016027475672243e-01,-4.620689655044946664e-01
2.678878076702919109e-01,-4.675862068836527663e-01
2.681740125930165974e-01,-4.731034482628109217e-01
2.684602175157412285e-01,-4.758620689523900271e-01
2.687464224384659151e-01,-4.813793103315481270e-01
2.690326273611906016e-01,-4.868965517107062824e-01
2.693188322839152882e-01,-4.924137930898644377e-01
2.696050372066399192e-01,-4.979310344690225931e-01
2.698912421293646058e-01,-5.006896551586016431e-01
2.701774470520892923e-01,-5.062068965377598539e-01
2.704636519748139234e-01,-5.117241379169179538e-01
2.707498568975386100e-01,-5.144827586064970593e-01
2.710360618202632965e-01,-5.199999999856551591e-01
2.713222667429879831e-01,-5.227586206752342646e-01
2.716084716657126141e-01,-5.282758620543923644e-01
2.718946765884373007e-01,-5.862068965355529127e-01
2.721808815111619873e-01,-5.862068965355529127e-01
2.724670864338866183e-01,-5.862068965355529127e-01
2.727532913566113049e-01,-5.862068965355529127e-01
2.730394962793359914e-01,-5.862068965355529127e-01
2.733257012020606780e-01,-5.862068965355529127e-01
2.736119061247853090e-01,-5.862068965355529127e-01
2.738981110475099956e-01,-5.862068965355529127e-01
2.741843159702346822e-01,-5.862068965355529127e-01
2.744705208929593132e-01,-5.862068965355529127e-01
2.747567258156839998e-01,-5.862068965355529127e-01
2.750429307384086863e-01,-5.862068965355529127e-01
2.753291356611333729e-01,-5.862068965355529127e-01
2.756153405838580039e-01,-5.862068965355529127e-01
2.759015455065826905e-01,-5.862068965355529127e-01
2.761877504293073771e-01,-5.862068965355529127e-01
2.764739553520320081e-01,-5.862068965355529127e-01
2.767601602747566947e-01,-5.862068965355529127e-01
2.770463651974813812e-01,-5.862068965355529127e-01
2.773325701202060678e-01,-5.862068965355529127e-01
2.776187750429306988e-01,-5.862068965355529127e-01
2.779049799656553854e-01,-5.862068965355529127e-01
2.781911848883800720e-01,-5.862068965355529127e-01
2.784773898111047030e-01,-5.862068965355529127e-01
2.787635947338293896e-01,-5.862068965355529127e-01
2.790497996565540761e-01,-5.889655172251320181e-01
2.793360045792787627e-01,-5.889655172251320181e-01
2.796222095020033938e-01,-5.889655172251320181e-01
2.799084144247280803e-01,-5.917241379147110125e-01
2.801946193474527669e-01,-5.944827586042901180e-01
2.804808242701773979e-01,-5.999999999834482178e-01
2.807670291929020845e-01,-6.027586206730273233e-01
2.810532341156267711e-01,-6.055172413626064287e-01
2.813394390383514576e-01,-6.110344827417645286e-01
2.816256439610760887e-01,-6.137931034313436340e-01
2.819118488838007752e-01,-6.165517241209227395e-01
2.821980538065254618e-01,-6.193103448105017339e-01
2.824842587292500928e-01,-6.248275861896599448e-01
2.827704636519747794e-01,-6.275862068792389392e-01
2.830566685746994660e-01,-6.303448275688180447e-01
2.833428734974241525e-01,-6.358620689479762556e-01
2.836290784201487836e-01,-6.386206896375552500e-01
2.839152833428734701e-01,-6.441379310167134609e-01
2.842014882655981567e-01,-6.468965517062924553e-01
2.844876931883227877e-01,-6.524137930854506662e-01
2.847738981110474743e-01,-6.551724137750296606e-01
2.850601030337721609e-01,-6.606896551541878715e-01
2.853463079564968474e-01,-6.634482758437669769e-01
2.856325128792214785e-01,-6.689655172229250768e-01
2.859187178019461650e-01,-6.717241379125041822e-01
2.862049227246708516e-01,-6.744827586020831767e-01
2.864911276473955382e-01,-6.772413792916622821e-01
2.867773325701201692e-01,-6.799999999812413876e-01
2.870635374928448558e-01,-6.827586206708203820e-01
2.873497424155695423e-01,-6.855172413603994874e-01
2.876359473382941734e-01,-6.882758620499785929e-01
2.879221522610188599e-01,-6.882758620499785929e-01
2.882083571837435465e-01,-6.910344827395576983e-01
2.884945621064682331e-01,-6.910344827395576983e-01
2.887807670291928641e-01,-6.910344827395576983e-01
2.890669719519175507e-01,-6.910344827395576983e-01
2.893531768746422372e-01,-6.882758620499785929e-01
2.896393817973668683e-01,-6.882758620499785929e-01
2.899255867200915548e-01,-6.855172413603994874e-01
2.902117916428162414e-01,-6.855172413603994874e-01
2.904979965655409280e-01,-6.827586206708203820e-01
2.907842014882655590e-01,-6.799999999812413876e-01
2.910704064109902456e-01,-6.772413792916622821e-01
2.913566113337149321e-01,-6.717241379125041822e-01
2.916428162564395632e-01,-6.524137930854506662e-01
2.919290211791642498e-01,-6.386206896375552500e-01
2.922152261018889363e-01,-6.137931034313436340e-01
2.925014310246136229e-01,-5.558620689501830858e-01
2.927876359473382539e-01,-5.227586206752342646e-01
2.930738408700629405e-01,-5.034482758481807485e-01
2.933600457927876271e-01,-4.758620689523900271e-01
2.936462507155122581e-01,-4.317241379191248396e-01
2.939324556382369447e-01,-3.848275861962806021e-01
2.942186605609616312e-01,-3.682758620588061915e-01
2.945048654836863178e-01,-3.462068965421735700e-01
2.947910704064109488e-01,-2.965517241297502826e-01
2.950772753291356354e-01,-2.524137930964851506e-01
2.953634802518603220e-01,-2.358620689590106845e-01
2.956496851745849530e-01,-2.110344827527990408e-01
2.959358900973096396e-01,-1.613793103403757534e-01
2.962220950200343261e-01,-1.255172413758477989e-01
2.965082999427590127e-01,-1.034482758592152191e-01
2.967945048654836437e-01,-7.862068965300356149e-02
2.970807097882083303e-01,-2.896551724058026023e-02
2.973669147109330169e-01,1.517241379268489780e-02
2.976531196336576479e-01,4.551724137805469861e-02
2.979393245563823345e-01,7.586206896342449768e-02
2.982255294791070210e-01,1.337931034445850043e-01
2.985117344018317076e-01,-1.241379310310582532e-02
2.987979393245563386e-01,-9.655172413526752831e-03
2.990841442472810252e-01,9.241379310089892218e-02
2.993703491700057118e-01,9.089655172163043639e-01
2.996565540927303428e-01,9.337931034225159799e-01
2.999427590154550294e-01,9.393103448016741908e-01
3.002289639381797159e-01,9.448275861808322906e-01
3.005151688609044025e-01,9.503448275599905015e-01
3.008013737836290336e-01,9.503448275599905015e-01
3.010875787063537201e-01,9.531034482495694959e-01
3.013737836290784067e-01,9.558620689391486014e-01
3.016599885518030932e-01,9.558620689391486014e-01
3.019461934745277243e-01,9.558620689391486014e-01
3.022323983972524108e-01,9.558620689391486014e-01
3.025186033199770974e-01,9.558620689391486014e-01
3.028048082427017285e-01,9.558620689391486014e-01
3.030910131654264150e-01,9.558620689391486014e-01
3.033772180881511016e-01,9.531034482495694959e-01
3.036634230108757881e-01,9.531034482495694959e-01
3.039496279336004192e-01,9.531034482495694959e-01
3.042358328563251058e-01,9.503448275599905015e-01
3.045220377790497923e-01,9.475862068704113961e-01
3.048082427017744234e-01,9.448275861808322906e-01
3.050944476244991099e-01,9.365517241120950853e-01
3.053806525472237965e-01,-8.565517241143020266e-01
3.056668574699484831e-01,-8.537931034247229212e-01
3.059530623926731141e-01,-8.455172413559857159e-01
3.062392673153978007e-01,-8.399999999768276160e-01
3.065254722381224872e-01,-8.317241379080902997e-01
3.068116771608471183e-01,-8.206896551497740999e-01
3.070978820835718048e-01,-8.151724137706158890e-01
3.073840870062964914e-01,-8.041379310122995783e-01
3.076702919290211780e-01,-7.986206896331414784e-01
3.079564968517458090e-01,-7.903448275644042731e-01
3.082427017744704956e-01,-7.820689654956670678e-01
3.085289066971951821e-01,-7.793103448060879623e-01
3.088151116199198132e-01,-7.737931034269298625e-01
3.091013165426444997e-01,-7.710344827373507570e-01
3.093875214653691863e-01,-7.682758620477716516e-01
3.096737263880938729e-01,-7.655172413581926572e-01
3.099599313108185039e-01,-7.655172413581926572e-01
3.102461362335431905e-01,-7.627586206686135517e-01
3.105323411562678770e-01,-7.627586206686135517e-01
3.108185460789925081e-01,-7.599999999790344463e-01
3.111047510017171946e-01,-7.599999999790344463e-01
3.113909559244418812e-01,-7.572413792894553408e-01
3.116771608471665678e-01,-7.572413792894553408e-01
3.119633657698911988e-01,-7.544827585998763464e-01
3.122495706926158854e-01,-7.544827585998763464e-01
3.125357756153405719e-01,-7.517241379102972409e-01
3.128219805380652030e-01,-7.517241379102972409e-01
3.131081854607898896e-01,-7.489655172207181355e-01
3.133943903835145761e-01,-7.489655172207181355e-01
3.136805953062392627e-01,-7.462068965311391411e-01
3.139668002289638937e-01,-7.434482758415600356e-01
3.142530051516885803e-01,-7.434482758415600356e-01
3.145392100744132668e-01,-7.406896551519809302e-01
3.148254149971378979e-01,-7.379310344624019358e-01
3.151116199198625845e-01,-7.379310344624019358e-01
3.153978248425872710e-01,-7.351724137728228303e-01
3.156840297653119576e-01,-7.324137930832437249e-01
3.159702346880365886e-01,-7.324137930832437249e-01
3.162564396107612752e-01,-7.296551723936646194e-01
3.165426445334859618e-01,-7.296551723936646194e-01
3.168288494562105928e-01,-7.268965517040856250e-01
3.171150543789352794e-01,-7.241379310145065196e-01
3.174012593016599659e-01,-7.241379310145065196e-01
3.176874642243846525e-01,-7.213793103249274141e-01
3.179736691471092835e-01,-7.186206896353484197e-01
3.182598740698339701e-01,-7.186206896353484197e-01
3.185460789925586567e-01,-7.158620689457693143e-01
3.188322839152833432e-01,-7.131034482561902088e-01
3.191184888380079743e-01,-7.131034482561902088e-01
3.194046937607326608e-01,-7.103448275666112144e-01
3.196908986834573474e-01,-7.075862068770321089e-01
3.199771036061819784e-01,-7.048275861874530035e-01
3.202633085289066650e-01,-7.048275861874530035e-01
3.205495134516313516e-01,-7.020689654978738981e-01
3.208357183743560381e-01,-6.993103448082949036e-01
3.211219232970806692e-01,-6.965517241187157982e-01
3.214081282198053557e-01,-6.965517241187157982e-01
3.216943331425300423e-01,-6.937931034291366927e-01
3.219805380652546734e-01,-6.910344827395576983e-01
3.222667429879793599e-01,-6.882758620499785929e-01
3.225529479107040465e-01,-6.882758620499785929e-01
3.228391528334287330e-01,-6.855172413603994874e-01
3.231253577561533641e-01,-6.827586206708203820e-01
3.234115626788780506e-01,-6.799999999812413876e-01
3.236977676016027372e-01,-6.772413792916622821e-01
3.239839725243273683e-01,-6.772413792916622821e-01
3.242701774470520548e-01,-6.744827586020831767e-01
3.245563823697767414e-01,-6.717241379125041822e-01
3.248425872925014279e-01,-6.689655172229250768e-01
3.251287922152260590e-01,-6.689655172229250768e-01
3.254149971379507456e-01,-6.662068965333459714e-01
3.257012020606754321e-01,-6.634482758437669769e-01
3.259874069834000632e-01,-6.606896551541878715e-01
3.262736119061247497e-01,-6.579310344646087660e-01
3.265598168288494363e-01,-6.551724137750296606e-01
3.268460217515741228e-01,-6.524137930854506662e-01
3.271322266742987539e-01,-6.496551723958715607e-01
3.274184315970234405e-01,-6.468965517062924553e-01
3.277046365197481270e-01,-6.441379310167134609e-01
3.279908414424727581e-01,-6.413793103271343554e-01
3.282770463651974446e-01,-6.386206896375552500e-01
3.285632512879221312e-01,-6.358620689479762556e-01
3.288494562106468178e-01,-6.331034482583971501e-01
3.291356611333714488e-01,-6.303448275688180447e-01
3.294218660560961354e-01,-6.275862068792389392e-01
3.297080709788208219e-01,-6.248275861896599448e-01
3.299942759015454530e-01,-6.220689655000808393e-01
3.302804808242701395e-01,-6.193103448105017339e-01
3.305666857469948261e-01,-6.193103448105017339e-01
3.308528906697195127e-01,-6.165517241209227395e-01
3.311390955924441437e-01,-6.137931034313436340e-01
3.314253005151688303e-01,-6.110344827417645286e-01
3.317115054378935168e-01,-6.055172413626064287e-01
3.319977103606181479e-01,-6.027586206730273233e-01
3.322839152833428344e-01,-5.999999999834482178e-01
3.325701202060675210e-01,-5.972413792938692234e-01
3.328563251287922076e-01,-5.944827586042901180e-01
3.331425300515168386e-01,-5.917241379147110125e-01
3.334287349742415252e-01,-5.889655172251320181e-01
3.337149398969662117e-01,-5.834482758459738072e-01
3.340011448196908983e-01,-5.806896551563947018e-01
3.342873497424155294e-01,-5.779310344668157073e-01
3.345735546651402159e-01,-5.751724137772366019e-01
3.348597595878649025e-01,-5.724137930876574965e-01
3.351459645105895335e-01,-5.668965517084993966e-01
3.354321694333142201e-01,-5.641379310189202911e-01
3.357183743560389066e-01,-5.613793103293412967e-01
3.360045792787635932e-01,-5.586206896397621913e-01
3.362907842014882243e-01,-5.558620689501830858e-01
3.365769891242129108e-01,-5.531034482606039804e-01
3.368631940469375974e-01,-5.475862068814458805e-01
3.371493989696622284e-01,-5.448275861918667751e-01
3.374356038923869150e-01,-5.420689655022877806e-01
3.377218088151116016e-01,-5.365517241231295698e-01
3.380080137378362881e-01,-5.337931034335505753e-01
3.382942186605609192e-01,-5.282758620543923644e-01
3.385804235832856057e-01,-5.255172413648132590e-01
3.388666285060102923e-01,-5.227586206752342646e-01
3.391528334287349233e-01,-5.199999999856551591e-01
3.394390383514596099e-01,-5.144827586064970593e-01
3.397252432741842965e-01,-5.117241379169179538e-01
3.400114481969089830e-01,-5.062068965377598539e-01
3.402976531196336141e-01,-5.034482758481807485e-01
3.405838580423583006e-01,-4.979310344690225931e-01
3.408700629650829872e-01,-4.951724137794434877e-01
3.411562678878076182e-01,-4.896551724002853878e-01
3.414424728105323048e-01,-4.841379310211272324e-01
3.417286777332569914e-01,-4.813793103315481270e-01
3.420148826559816779e-01,-4.758620689523900271e-01
3.423010875787063090e-01,-4.731034482628109217e-01
3.425872925014309955e-01,-4.675862068836527663e-01
3.428734974241556821e-01,-4.620689655044946664e-01
3.431597023468803132e-01,-4.593103448149155610e-01
3.434459072696049997e-01,-4.537931034357574056e-01
3.437321121923296863e-01,-4.510344827461783557e-01
3.440183171150543728e-01,-4.427586206774411504e-01
3.443045220377790039e-01,-4.399999999878620449e-01
3.445907269605036904e-01,-4.344827586087038895e-01
3.448769318832283770e-01,-4.289655172295457897e-01
3.451631368059530081e-01,-4.262068965399666842e-01
3.454493417286776946e-01,-4.206896551608085288e-01
3.457355466514023812e-01,-4.151724137816504290e-01
3.460217515741270677e-01,-4.096551724024922736e-01
3.463079564968516988e-01,-4.041379310233341182e-01
3.465941614195763854e-01,-4.013793103337550683e-01
3.468803663423010719e-01,-3.986206896441759628e-01
3.471665712650257030e-01,-3.958620689545969129e-01
3.474527761877503895e-01,-3.931034482650178075e-01
3.477389811104750761e-01,-3.903448275754387575e-01
3.480251860331997626e-01,-3.903448275754387575e-01
3.483113909559243937e-01,-3.903448275754387575e-01
3.485975958786490803e-01,-3.903448275754387575e-01
3.488838008013737668e-01,-3.903448275754387575e-01
3.491700057240983979e-01,-3.903448275754387575e-01
3.494562106468230844e-01,-3.903448275754387575e-01
3.497424155695477710e-01,-3.903448275754387575e-01
3.500286204922724576e-01,-3.903448275754387575e-01
3.503148254149970886e-01,-3.903448275754387575e-01
3.506010303377217752e-01,-3.903448275754387575e-01
3.508872352604464617e-01,-3.903448275754387575e-01
3.511734401831711483e-01,-3.903448275754387575e-01
3.514596451058957793e-01,-3.903448275754387575e-01
3.517458500286204659e-01,-3.931034482650178075e-01
3.520320549513451525e-01,-3.931034482650178075e-01
3.523182598740697835e-01,-3.958620689545969129e-01
3.526044647967944701e-01,-3.958620689545969129e-01
3.528906697195191566e-01,-3.958620689545969129e-01
3.531768746422438432e-01,-3.986206896441759628e-01
3.534630795649684742e-01,-3.986206896441759628e-01
3.537492844876931608e-01,-3.986206896441759628e-01
3.540354894104178474e-01,-4.013793103337550683e-01
3.543216943331424784e-01,-4.013793103337550683e-01
3.546078992558671650e-01,-4.013793103337550683e-01
3.548941041785918515e-01,-4.041379310233341182e-01
3.551803091013165381e-01,-4.041379310233341182e-01
3.554665140240411692e-01,-4.068965517129131682e-01
3.557527189467658557e-01,-4.068965517129131682e-01
3.560389238694905423e-01,-4.096551724024922736e-01
3.563251287922151733e-01,-4.124137930920713235e-01
3.566113337149398599e-01,-4.151724137816504290e-01
3.568975386376645464e-01,-4.151724137816504290e-01
3.571837435603892330e-01,-4.179310344712294789e-01
3.574699484831138641e-01,-4.206896551608085288e-01
3.577561534058385506e-01,-4.234482758503876343e-01
3.580423583285632372e-01,-4.234482758503876343e-01
3.583285632512878682e-01,-4.262068965399666842e-01
3.586147681740125548e-01,-4.289655172295457897e-01
3.589009730967372414e-01,-4.317241379191248396e-01
3.591871780194619279e-01,-4.317241379191248396e-01
3.594733829421865590e-01,-4.344827586087038895e-01
3.597595878649112455e-01,-4.372413792982829950e-01
3.600457927876359321e-01,-4.399999999878620449e-01
3.603319977103605631e-01,-4.427586206774411504e-01
3.606182026330852497e-01,-4.455172413670202003e-01
3.609044075558099363e-01,-4.510344827461783557e-01
3.611906124785346228e-01,-4.537931034357574056e-01
3.614768174012592539e-01,-4.565517241253365111e-01
3.617630223239839404e-01,-4.593103448149155610e-01
3.620492272467086270e-01,-4.620689655044946664e-01
3.623354321694332580e-01,-4.648275861940737164e-01
3.626216370921579446e-01,-4.675862068836527663e-01
3.629078420148826312e-01,-4.731034482628109217e-01
3.631940469376073177e-01,-4.758620689523900271e-01
3.634802518603319488e-01,-4.813793103315481270e-01
3.637664567830566353e-01,-4.841379310211272324e-01
3.640526617057813219e-01,-4.868965517107062824e-01
3.643388666285059529e-01,-4.924137930898644377e-01
3.646250715512306395e-01,-4.979310344690225931e-01
3.649112764739553261e-01,-5.006896551586016431e-01
3.651974813966800126e-01,-5.062068965377598539e-01
3.654836863194046437e-01,-5.117241379169179538e-01
3.657698912421293302e-01,-5.172413792960760537e-01
3.660560961648540168e-01,-5.255172413648132590e-01
3.663423010875787034e-01,-5.310344827439714699e-01
3.666285060103033344e-01,-5.337931034335505753e-01
3.669147109330280210e-01,-5.420689655022877806e-01
3.672009158557527075e-01,-5.475862068814458805e-01
3.674871207784773386e-01,-5.558620689501830858e-01
3.677733257012020252e-01,-5.613793103293412967e-01
3.680595306239267117e-01,-5.668965517084993966e-01
3.683457355466513983e-01,-5.751724137772366019e-01
3.686319404693760293e-01,-5.834482758459738072e-01
3.689181453921007159e-01,-5.889655172251320181e-01
3.692043503148254024e-01,-5.972413792938692234e-01
3.694905552375500335e-01,-6.027586206730273233e-01
3.697767601602747201e-01,-6.082758620521855342e-01
3.700629650829994066e-01,-6.137931034313436340e-01
3.703491700057240932e-01,-6.193103448105017339e-01
3.706353749284487242e-01,-6.248275861896599448e-01
3.709215798511734108e-01,-6.275862068792389392e-01
3.712077847738980974e-01,-6.331034482583971501e-01
3.714939896966227284e-01,-6.386206896375552500e-01
3.717801946193474150e-01,-6.441379310167134609e-01
3.720663995420721015e-01,-6.496551723958715607e-01
3.723526044647967881e-01,-6.524137930854506662e-01
3.726388093875214191e-01,-6.579310344646087660e-01
3.729250143102461057e-01,-6.606896551541878715e-01
3.732112192329707923e-01,-6.662068965333459714e-01
3.734974241556954233e-01,-6.689655172229250768e-01
3.737836290784201099e-01,-6.717241379125041822e-01
3.740698340011447964e-01,-6.744827586020831767e-01
3.743560389238694830e-01,-6.772413792916622821e-01
3.746422438465941140e-01,-6.799999999812413876e-01
3.749284487693188006e-01,-6.827586206708203820e-01
3.752146536920434872e-01,-6.855172413603994874e-01
3.755008586147681182e-01,-6.882758620499785929e-01
3.757870635374928048e-01,-6.910344827395576983e-01
3.760732684602174913e-01,-6.937931034291366927e-01
3.763594733829421779e-01,-6.965517241187157982e-01
3.766456783056668089e-01,-6.993103448082949036e-01
3.769318832283914955e-01,-7.020689654978738981e-01
3.772180881511161821e-01,-7.048275861874530035e-01
3.775042930738408131e-01,-7.048275861874530035e-01
3.777904979965654997e-01,-7.075862068770321089e-01
3.780767029192901862e-01,-7.103448275666112144e-01
3.783629078420148728e-01,-7.131034482561902088e-01
3.786491127647395039e-01,-7.131034482561902088e-01
3.789353176874641904e-01,-7.158620689457693143e-01
3.792215226101888770e-01,-7.158620689457693143e-01
3.795077275329135080e-01,-7.186206896353484197e-01
3.797939324556381946e-01,-7.213793103249274141e-01
3.800801373783628812e-01,-7.213793103249274141e-01
3.803663423010875677e-01,-7.241379310145065196e-01
3.806525472238121988e-01,-7.268965517040856250e-01
3.809387521465368853e-01,-7.268965517040856250e-01
3.812249570692615719e-01,-7.296551723936646194e-01
3.815111619919862029e-01,-7.296551723936646194e-01
3.817973669147108895e-01,-7.324137930832437249e-01
3.820835718374355761e-01,-7.324137930832437249e-01
3.823697767601602626e-01,-7.351724137728228303e-01
3.826559816828848937e-01,-7.351724137728228303e-01
3.829421866056095802e-01,-7.379310344624019358e-01
3.832283915283342668e-01,-7.379310344624019358e-01
3.835145964510589534e-01,-7.379310344624019358e-01
3.838008013737835844e-01,-7.379310344624019358e-01
3.840870062965082710e-01,-7.406896551519809302e-01
3.843732112192329575e-01,-7.406896551519809302e-01
3.846594161419575886e-01,-7.406896551519809302e-01
3.849456210646822751e-01,-7.434482758415600356e-01
3.852318259874069617e-01,-7.434482758415600356e-01
3.855180309101316483e-01,-7.434482758415600356e-01
3.858042358328562793e-01,-7.434482758415600356e-01
3.860904407555809659e-01,-7.462068965311391411e-01
3.863766456783056524e-01,-7.462068965311391411e-01
3.866628506010302835e-01,-7.462068965311391411e-01
3.869490555237549700e-01,-7.462068965311391411e-01
3.872352604464796566e-01,-7.462068965311391411e-01
3.875214653692043432e-01,-7.462068965311391411e-01
3.878076702919289742e-01,-7.462068965311391411e-01
3.880938752146536608e-01,-7.462068965311391411e-01
3.883800801373783473e-01,-7.462068965311391411e-01
3.886662850601029784e-01,-7.462068965311391411e-01
3.889524899828276649e-01,-7.462068965311391411e-01
3.892386949055523515e-01,-7.462068965311391411e-01
3.895248998282770381e-01,-7.462068965311391411e-01
3.898111047510016691e-01,-7.462068965311391411e-01
3.900973096737263557e-01,-7.462068965311391411e-01
3.903835145964510422e-01,-7.462068965311391411e-01
3.906697195191756733e-01,-7.462068965311391411e-01
3.909559244419003599e-01,-7.462068965311391411e-01
3.912421293646250464e-01,-7.434482758415600356e-01
3.915283342873497330e-01,-7.434482758415600356e-01
3.918145392100743640e-01,-7.434482758415600356e-01
3.921007441327990506e-01,-7.434482758415600356e-01
3.923869490555237372e-01,-7.406896551519809302e-01
3.926731539782483682e-01,-7.406896551519809302e-01
3.929593589009730548e-01,-7.379310344624019358e-01
3.932455638236977413e-01,-7.379310344624019358e-01
3.935317687464224279e-01,-7.351724137728228303e-01
3.938179736691470589e-01,-7.351724137728228303e-01
3.941041785918717455e-01,-7.351724137728228303e-01
3.943903835145964321e-01,-7.324137930832437249e-01
3.946765884373210631e-01,-7.296551723936646194e-01
3.949627933600457497e-01,-7.296551723936646194e-01
3.952489982827704362e-01,-7.268965517040856250e-01
3.955352032054951228e-01,-7.241379310145065196e-01
3.958214081282197538e-01,-7.213793103249274141e-01
3.961076130509444404e-01,-7.186206896353484197e-01
3.963938179736691270e-01,-7.158620689457693143e-01
3.966800228963937580e-01,-7.131034482561902088e-01
3.969662278191184446e-01,-7.103448275666112144e-01
3.972524327418431311e-01,-7.075862068770321089e-01
3.975386376645678177e-01,-7.048275861874530035e-01
3.978248425872924487e-01,-7.020689654978738981e-01
3.981110475100171353e-01,-6.965517241187157982e-01
3.983972524327418219e-01,-6.937931034291366927e-01
3.986834573554664529e-01,-6.910344827395576983e-01
3.989696622781911395e-01,-6.855172413603994874e-01
3.992558672009158260e-01,-6.827586206708203820e-01
3.995420721236405126e-01,-6.799999999812413876e-01
3.998282770463651437e-01,-6.744827586020831767e-01
4.001144819690898302e-01,-6.717241379125041822e-01
4.004006868918145168e-01,-6.689655172229250768e-01
4.006868918145392033e-01,-6.662068965333459714e-01
4.009730967372638344e-01,-6.634482758437669769e-01
4.012593016599885209e-01,-6.579310344646087660e-01
4.015455065827132075e-01,-6.524137930854506662e-01
4.018317115054378386e-01,-6.496551723958715607e-01
4.021179164281625251e-01,-6.468965517062924553e-01
4.024041213508872117e-01,-6.441379310167134609e-01
4.026903262736118982e-01,-6.413793103271343554e-01
4.029765311963365293e-01,-6.386206896375552500e-01
4.032627361190612159e-01,-6.358620689479762556e-01
4.035489410417859024e-01,-6.331034482583971501e-01
4.038351459645105335e-01,-6.275862068792389392e-01
4.041213508872352200e-01,-6.248275861896599448e-01
4.044075558099599066e-01,-6.220689655000808393e-01
4.046937607326845932e-01,-6.193103448105017339e-01
4.049799656554092242e-01,-6.165517241209227395e-01
4.052661705781339108e-01,-6.137931034313436340e-01
4.055523755008585973e-01,-6.110344827417645286e-01
4.058385804235832284e-01,-6.082758620521855342e-01
4.061247853463079149e-01,-6.055172413626064287e-01
4.064109902690326015e-01,-6.027586206730273233e-01
4.066971951917572881e-01,-6.027586206730273233e-01
4.069834001144819191e-01,-5.999999999834482178e-01
4.072696050372066057e-01,-5.972413792938692234e-01
4.075558099599312922e-01,-5.944827586042901180e-01
4.078420148826559233e-01,-5.917241379147110125e-01
4.081282198053806098e-01,-5.889655172251320181e-01
4.084144247281052964e-01,-5.889655172251320181e-01
4.087006296508299830e-01,-5.862068965355529127e-01
4.089868345735546140e-01,-5.834482758459738072e-01
4.092730394962793006e-01,-5.806896551563947018e-01
4.095592444190039871e-01,-5.806896551563947018e-01
4.098454493417286182e-01,-5.779310344668157073e-01
4.101316542644533047e-01,-5.751724137772366019e-01
4.104178591871779913e-01,-5.724137930876574965e-01
4.107040641099026779e-01,-5.724137930876574965e-01
4.109902690326273089e-01,-5.696551723980785020e-01
4.112764739553519955e-01,-5.668965517084993966e-01
4.115626788780766820e-01,-5.668965517084993966e-01
4.118488838008013131e-01,-5.641379310189202911e-01
4.121350887235259997e-01,-5.613793103293412967e-01
4.124212936462506862e-01,-5.613793103293412967e-01
4.127074985689753728e-01,-5.586206896397621913e-01
4.129937034917000038e-01,-5.586206896397621913e-01
4.132799084144246904e-01,-5.558620689501830858e-01
4.135661133371493769e-01,-5.531034482606039804e-01
4.138523182598740080e-01,-5.531034482606039804e-01
4.141385231825986946e-01,-5.503448275710249860e-01
4.144247281053233811e-01,-5.503448275710249860e-01
4.147109330280480677e-01,-5.475862068814458805e-01
4.149971379507726987e-01,-5.475862068814458805e-01
4.152833428734973853e-01,-5.448275861918667751e-01
4.155695477962220719e-01,-5.448275861918667751e-01
4.158557527189467584e-01,-5.420689655022877806e-01
4.161419576416713895e-01,-5.420689655022877806e-01
4.164281625643960760e-01,-5.393103448127086752e-01
4.167143674871207626e-01,-5.393103448127086752e-01
4.170005724098453936e-01,-5.393103448127086752e-01
4.172867773325700802e-01,-5.365517241231295698e-01
4.175729822552947668e-01,-5.365517241231295698e-01
4.178591871780194533e-01,-5.337931034335505753e-01
4.181453921007440844e-01,-5.337931034335505753e-01
4.184315970234687709e-01,-5.310344827439714699e-01
4.187178019461934575e-01,-5.310344827439714699e-01
4.190040068689180885e-01,-5.310344827439714699e-01
4.192902117916427751e-01,-5.310344827439714699e-01
4.195764167143674617e-01,-5.282758620543923644e-01
4.198626216370921482e-01,-5.282758620543923644e-01
4.201488265598167793e-01,-5.282758620543923644e-01
4.204350314825414658e-01,-5.282758620543923644e-01
4.207212364052661524e-01,-5.282758620543923644e-01
4.210074413279907835e-01,-5.282758620543923644e-01
4.212936462507154700e-01,-5.282758620543923644e-01
4.215798511734401566e-01,-5.255172413648132590e-01
4.218660560961648431e-01,-5.255172413648132590e-01
4.221522610188894742e-01,-5.255172413648132590e-01
4.224384659416141607e-01,-5.255172413648132590e-01
4.227246708643388473e-01,-5.255172413648132590e-01
4.230108757870634784e-01,-5.255172413648132590e-01
4.232970807097881649e-01,-5.255172413648132590e-01
4.235832856325128515e-01,-5.255172413648132590e-01
4.238694905552375380e-01,-5.227586206752342646e-01
4.241556954779621691e-01,-5.227586206752342646e-01
4.244419004006868557e-01,-5.227586206752342646e-01
4.247281053234115422e-01,-5.227586206752342646e-01
4.250143102461361733e-01,-5.227586206752342646e-01
4.253005151688608598e-01,-5.227586206752342646e-01
4.255867200915855464e-01,-5.227586206752342646e-01
4.258729250143102329e-01,-5.227586206752342646e-01
4.261591299370348640e-01,-5.227586206752342646e-01
4.264453348597595506e-01,-5.227586206752342646e-01
4.267315397824842371e-01,-5.227586206752342646e-01
4.270177447052088682e-01,-5.227586206752342646e-01
4.273039496279335547e-01,-5.227586206752342646e-01
4.275901545506582413e-01,-5.227586206752342646e-01
4.278763594733829279e-01,-5.227586206752342646e-01
4.281625643961075589e-01,-5.227586206752342646e-01
4.284487693188322455e-01,-5.227586206752342646e-01
4.287349742415569320e-01,-5.227586206752342646e-01
4.290211791642815631e-01,-5.227586206752342646e-01
4.293073840870062496e-01,-5.227586206752342646e-01
4.295935890097309362e-01,-5.227586206752342646e-01
4.298797939324556228e-01,-5.227586206752342646e-01
4.301659988551802538e-01,-5.227586206752342646e-01
4.304522037779049404e-01,-5.227586206752342646e-01
4.307384087006296269e-01,-5.227586206752342646e-01
4.310246136233542580e-01,-5.227586206752342646e-01
4.313108185460789445e-01,-5.227586206752342646e-01
4.315970234688036311e-01,-5.227586206752342646e-01
4.318832283915283177e-01,-5.227586206752342646e-01
4.321694333142529487e-01,-5.227586206752342646e-01
4.324556382369776353e-01,-5.227586206752342646e-01
4.327418431597023218e-01,-5.227586206752342646e-01
4.330280480824270084e-01,-5.227586206752342646e-01
4.333142530051516395e-01,-5.227586206752342646e-01
4.336004579278763260e-01,-5.227586206752342646e-01
4.338866628506010126e-01,-5.227586206752342646e-01
4.341728677733256436e-01,-5.227586206752342646e-01
4.344590726960503302e-01,-5.227586206752342646e-01
4.347452776187750167e-01,-5.227586206752342646e-01
4.350314825414997033e-01,-5.227586206752342646e-01
4.353176874642243344e-01,-5.227586206752342646e-01
4.356038923869490209e-01,-5.227586206752342646e-01
4.358900973096737075e-01,-5.227586206752342646e-01
4.361763022323983385e-01,-5.227586206752342646e-01
4.364625071551230251e-01,-5.227586206752342646e-01
4.367487120778477117e-01,-5.227586206752342646e-01
4.370349170005723982e-01,-5.227586206752342646e-01
4.373211219232970293e-01,-5.227586206752342646e-01
4.376073268460217158e-01,-5.227586206752342646e-01
4.378935317687464024e-01,-5.227586206752342646e-01
4.381797366914710334e-01,-5.227586206752342646e-01
4.384659416141957200e-01,-5.227586206752342646e-01
4.387521465369204066e-01,-5.227586206752342646e-01
4.390383514596450931e-01,-5.227586206752342646e-01
4.393245563823697242e-01,-5.227586206752342646e-01
4.396107613050944107e-01,-5.227586206752342646e-01
4.398969662278190973e-01,-5.227586206752342646e-01
4.401831711505437283e-01,-5.227586206752342646e-01
4.404693760732684149e-01,-5.227586206752342646e-01
4.407555809959931015e-01,-5.227586206752342646e-01
4.410417859187177880e-01,-5.227586206752342646e-01
4.413279908414424191e-01,-5.227586206752342646e-01
4.416141957641671056e-01,-5.227586206752342646e-01
4.419004006868917922e-01,-5.227586206752342646e-01
4.421866056096164233e-01,-5.227586206752342646e-01
4.424728105323411098e-01,-5.227586206752342646e-01
4.427590154550657964e-01,-5.227586206752342646e-01
4.430452203777904829e-01,-5.227586206752342646e-01
4.433314253005151140e-01,-5.227586206752342646e-01
4.436176302232398005e-01,-5.227586206752342646e-01
4.439038351459644871e-01,-5.227586206752342646e-01
4.441900400686891182e-01,-5.227586206752342646e-01
4.444762449914138047e-01,-5.227586206752342646e-01
4.447624499141384913e-01,-5.227586206752342646e-01
4.450486548368631778e-01,-5.227586206752342646e-01
4.453348597595878089e-01,-5.227586206752342646e-01
4.456210646823124955e-01,-5.227586206752342646e-01
4.459072696050371820e-01,-5.227586206752342646e-01
4.461934745277618131e-01,-5.227586206752342646e-01
4.464796794504864996e-01,-5.227586206752342646e-01
4.467658843732111862e-01,-5.227586206752342646e-01
4.470520892959358727e-01,-5.227586206752342646e-01
4.473382942186605038e-01,-5.227586206752342646e-01
4.476244991413851904e-01,-5.227586206752342646e-01
4.479107040641098769e-01,-5.227586206752342646e-01
4.481969089868345635e-01,-5.227586206752342646e-01
4.484831139095591945e-01,-5.227586206752342646e-01
4.487693188322838811e-01,-5.227586206752342646e-01
4.490555237550085677e-01,-5.227586206752342646e-01
4.493417286777331987e-01,-5.227586206752342646e-01
4.496279336004578853e-01,-5.227586206752342646e-01
4.499141385231825718e-01,-5.227586206752342646e-01
4.502003434459072584e-01,-5.227586206752342646e-01
4.504865483686318894e-01,-5.227586206752342646e-01
4.507727532913565760e-01,-5.227586206752342646e-01
4.510589582140812626e-01,-5.227586206752342646e-01
4.513451631368058936e-01,-5.227586206752342646e-01
4.516313680595305802e-01,-5.227586206752342646e-01
4.519175729822552667e-01,-5.227586206752342646e-01
4.522037779049799533e-01,-5.227586206752342646e-01
4.524899828277045843e-01,-5.227586206752342646e-01
4.527761877504292709e-01,-5.227586206752342646e-01
4.530623926731539575e-01,-5.227586206752342646e-01
4.533485975958785885e-01,-5.227586206752342646e-01
4.536348025186032751e-01,-5.227586206752342646e-01
4.539210074413279616e-01,-5.227586206752342646e-01
4.542072123640526482e-01,-5.227586206752342646e-01
4.544934172867772793e-01,-5.227586206752342646e-01
4.547796222095019658e-01,-5.227586206752342646e-01
4.550658271322266524e-01,-5.227586206752342646e-01
4.553520320549512834e-01,-5.227586206752342646e-01
4.556382369776759700e-01,-5.227586206752342646e-01
4.559244419004006565e-01,-5.227586206752342646e-01
4.562106468231253431e-01,-5.227586206752342646e-01
4.564968517458499742e-01,-5.199999999856551591e-01
4.567830566685746607e-01,-5.172413792960760537e-01
4.570692615912993473e-01,-5.117241379169179538e-01
4.573554665140239783e-01,-5.062068965377598539e-01
4.576416714367486649e-01,-5.006896551586016431e-01
4.579278763594733515e-01,-4.979310344690225931e-01
4.582140812821980380e-01,-4.924137930898644377e-01
4.585002862049226691e-01,-4.868965517107062824e-01
4.587864911276473556e-01,-4.813793103315481270e-01
4.590726960503720422e-01,-4.786206896419690771e-01
4.593589009730966732e-01,-4.731034482628109217e-01
4.596451058958213598e-01,-4.675862068836527663e-01
4.599313108185460464e-01,-4.648275861940737164e-01
4.602175157412707329e-01,-4.593103448149155610e-01
4.605037206639953640e-01,-4.537931034357574056e-01
4.607899255867200505e-01,-4.510344827461783557e-01
4.610761305094447371e-01,-4.455172413670202003e-01
4.613623354321693681e-01,-4.427586206774411504e-01
4.616485403548940547e-01,-4.372413792982829950e-01
4.619347452776187413e-01,-4.317241379191248396e-01
4.622209502003434278e-01,-4.289655172295457897e-01
4.625071551230680589e-01,-4.234482758503876343e-01
4.627933600457927454e-01,-4.179310344712294789e-01
4.630795649685174320e-01,-4.124137930920713235e-01
4.633657698912420630e-01,-4.096551724024922736e-01
4.636519748139667496e-01,-4.041379310233341182e-01
4.639381797366914362e-01,-4.013793103337550683e-01
4.642243846594161227e-01,-3.958620689545969129e-01
4.645105895821407538e-01,-3.931034482650178075e-01
4.647967945048654403e-01,-3.903448275754387575e-01
4.650829994275901269e-01,-3.875862068858597076e-01
4.653692043503148135e-01,-3.848275861962806021e-01
4.656554092730394445e-01,-3.820689655067015522e-01
4.659416141957641311e-01,-3.820689655067015522e-01
4.662278191184888176e-01,-3.793103448171224468e-01
4.665140240412134487e-01,-3.765517241275433968e-01
4.668002289639381353e-01,-3.765517241275433968e-01
4.670864338866628218e-01,-3.737931034379643469e-01
4.673726388093875084e-01,-3.737931034379643469e-01
4.676588437321121394e-01,-3.737931034379643469e-01
4.679450486548368260e-01,-3.737931034379643469e-01
4.682312535775615125e-01,-3.737931034379643469e-01
4.685174585002861436e-01,-3.737931034379643469e-01
4.688036634230108302e-01,-3.737931034379643469e-01
4.690898683457355167e-01,-3.737931034379643469e-01
4.693760732684602033e-01,-3.737931034379643469e-01
4.696622781911848343e-01,-3.737931034379643469e-01
4.699484831139095209e-01,-3.737931034379643469e-01
4.702346880366342075e-01,-3.737931034379643469e-01
4.705208929593588385e-01,-3.737931034379643469e-01
4.708070978820835251e-01,-3.737931034379643469e-01
4.710933028048082116e-01,-3.737931034379643469e-01
4.713795077275328982e-01,-3.765517241275433968e-01
4.716657126502575292e-01,-3.765517241275433968e-01
4.719519175729822158e-01,-3.793103448171224468e-01
4.722381224957069024e-01,-3.820689655067015522e-01
4.725243274184315334e-01,-3.820689655067015522e-01
4.728105323411562200e-01,-3.848275861962806021e-01
4.730967372638809065e-01,-3.875862068858597076e-01
4.733829421866055931e-01,-3.903448275754387575e-01
4.736691471093302241e-01,-3.931034482650178075e-01
4.739553520320549107e-01,-3.958620689545969129e-01
4.742415569547795973e-01,-4.013793103337550683e-01
4.745277618775042283e-01,-4.068965517129131682e-01
4.748139668002289149e-01,-4.124137930920713235e-01
4.751001717229536014e-01,-4.151724137816504290e-01
4.753863766456782880e-01,-4.206896551608085288e-01
4.756725815684029190e-01,-4.262068965399666842e-01
4.759587864911276056e-01,-4.317241379191248396e-01
4.762449914138522922e-01,-4.344827586087038895e-01
4.765311963365769232e-01,-4.399999999878620449e-01
4.768174012593016098e-01,-4.455172413670202003e-01
4.771036061820262963e-01,-4.510344827461783557e-01
4.773898111047509829e-01,-4.565517241253365111e-01
4.776760160274756140e-01,-4.593103448149155610e-01
4.779622209502003005e-01,-4.648275861940737164e-01
4.782484258729249871e-01,-4.703448275732318717e-01
4.785346307956496181e-01,-4.758620689523900271e-01
4.788208357183743047e-01,-4.813793103315481270e-01
4.791070406410989913e-01,-4.841379310211272324e-01
4.793932455638236778e-01,-4.896551724002853878e-01
4.796794504865483089e-01,-4.951724137794434877e-01
4.799656554092729954e-01,-5.006896551586016431e-01
4.802518603319976820e-01,-5.034482758481807485e-01
4.805380652547223685e-01,-5.089655172273388484e-01
4.808242701774469996e-01,-5.144827586064970593e-01
4.811104751001716862e-01,-5.172413792960760537e-01
4.813966800228963727e-01,-5.199999999856551591e-01
4.816828849456210038e-01,-5.227586206752342646e-01
4.819690898683456903e-01,-5.227586206752342646e-01
4.822552947910703769e-01,-5.227586206752342646e-01
4.825414997137950635e-01,-5.227586206752342646e-01
4.828277046365196945e-01,-5.227586206752342646e-01
4.831139095592443811e-01,-5.227586206752342646e-01
4.834001144819690676e-01,-5.227586206752342646e-01
4.836863194046936987e-01,-5.227586206752342646e-01
4.839725243274183852e-01,-5.227586206752342646e-01
4.842587292501430718e-01,-5.227586206752342646e-01
4.845449341728677584e-01,-5.227586206752342646e-01
4.848311390955923894e-01,-5.227586206752342646e-01
4.851173440183170760e-01,-5.227586206752342646e-01
4.854035489410417625e-01,-5.227586206752342646e-01
4.856897538637663936e-01,-5.227586206752342646e-01
4.859759587864910801e-01,-5.227586206752342646e-01
4.862621637092157667e-01,-5.227586206752342646e-01
4.865483686319404533e-01,-5.227586206752342646e-01
4.868345735546650843e-01,-5.227586206752342646e-01
4.871207784773897709e-01,-5.227586206752342646e-01
4.874069834001144574e-01,-5.227586206752342646e-01
4.876931883228390885e-01,-5.227586206752342646e-01
4.879793932455637751e-01,-5.227586206752342646e-01
4.882655981682884616e-01,-5.227586206752342646e-01
4.885518030910131482e-01,-5.227586206752342646e-01
4.888380080137377792e-01,-5.227586206752342646e-01
4.891242129364624658e-01,-5.227586206752342646e-01
4.894104178591871523e-01,-5.227586206752342646e-01
4.896966227819117834e-01,-5.255172413648132590e-01
4.899828277046364700e-01,-5.227586206752342646e-01
4.902690326273611565e-01,-5.255172413648132590e-01
4.905552375500858431e-01,-5.255172413648132590e-01
4.908414424728104741e-01,-5.255172413648132590e-01
4.911276473955351607e-01,-5.255172413648132590e-01
4.914138523182598473e-01,-5.255172413648132590e-01
4.917000572409844783e-01,-5.282758620543923644e-01
4.919862621637091649e-01,-5.310344827439714699e-01
4.922724670864338514e-01,-5.337931034335505753e-01
4.925586720091585380e-01,-5.365517241231295698e-01
4.928448769318831690e-01,-5.420689655022877806e-01
4.931310818546078556e-01,-5.448275861918667751e-01
4.934172867773325422e-01,-5.503448275710249860e-01
4.937034917000571732e-01,-5.531034482606039804e-01
4.939896966227818598e-01,-5.586206896397621913e-01
4.942759015455065463e-01,-5.613793103293412967e-01
4.945621064682312329e-01,-5.668965517084993966e-01
4.948483113909558639e-01,-6.606896551541878715e-01
4.951345163136805505e-01,-6.662068965333459714e-01
4.954207212364052371e-01,-6.689655172229250768e-01
4.957069261591298681e-01,-6.717241379125041822e-01
4.959931310818545547e-01,-6.717241379125041822e-01
4.962793360045792412e-01,-6.744827586020831767e-01
4.965655409273039278e-01,-6.772413792916622821e-01
4.968517458500285588e-01,-6.772413792916622821e-01
4.971379507727532454e-01,-6.772413792916622821e-01
4.974241556954779320e-01,-6.772413792916622821e-01
4.977103606182026185e-01,-6.772413792916622821e-01
4.979965655409272496e-01,-6.772413792916622821e-01
4.982827704636519361e-01,-6.744827586020831767e-01
4.985689753863766227e-01,-6.717241379125041822e-01
4.988551803091012538e-01,-6.717241379125041822e-01
4.991413852318259403e-01,-6.689655172229250768e-01
4.994275901545506269e-01,-6.662068965333459714e-01
4.997137950772753134e-01,-6.634482758437669769e-01
4.999999999999999445e-01,-6.413793103271343554e-01
5.002862049227245755e-01,-6.082758620521855342e-01
5.005724098454492621e-01,-5.862068965355529127e-01
5.008586147681739487e-01,-5.475862068814458805e-01
5.011448196908986352e-01,-4.896551724002853878e-01
5.014310246136233218e-01,-4.648275861940737164e-01
5.017172295363480083e-01,-4.372413792982829950e-01
5.020034344590726949e-01,-3.875862068858597076e-01
5.022896393817972704e-01,-3.489655172317526755e-01
5.025758443045219570e-01,-3.268965517151201094e-01
5.028620492272466436e-01,-2.910344827505921272e-01
5.031482541499713301e-01,-2.331034482694316345e-01
5.034344590726960167e-01,-2.055172413736408854e-01
5.037206639954207033e-01,-1.806896551674292417e-01
5.040068689181453898e-01,-1.337931034445850043e-01
5.042930738408699654e-01,-8.689655172174078068e-02
5.045792787635946519e-01,-6.206896551552913005e-02
5.048654836863193385e-01,-3.172413793015933098e-02
5.051516886090440250e-01,3.172413793015933098e-02
5.054378935317687116e-01,8.137931034258263918e-02
5.057240984544933982e-01,1.034482758592152191e-01
5.060103033772180847e-01,1.503448275820594426e-01
5.062965082999427713e-01,3.999999999889655017e-02
5.065827132226673468e-01,4.275862068847562092e-02
5.068689181453920334e-01,1.255172413758477989e-01
5.071551230681167199e-01,9.034482758371462641e-01
5.074413279908414065e-01,9.062068965267252585e-01
5.077275329135660931e-01,9.089655172163043639e-01
5.080137378362907796e-01,9.117241379058834694e-01
5.082999427590154662e-01,9.117241379058834694e-01
5.085861476817400417e-01,9.144827585954625748e-01
5.088723526044647283e-01,9.144827585954625748e-01
5.091585575271894148e-01,9.144827585954625748e-01
5.094447624499141014e-01,9.144827585954625748e-01
5.097309673726387880e-01,9.144827585954625748e-01
5.100171722953634745e-01,9.117241379058834694e-01
5.103033772180881611e-01,9.117241379058834694e-01
5.105895821408127366e-01,9.117241379058834694e-01
5.108757870635374232e-01,9.089655172163043639e-01
5.111619919862621098e-01,9.062068965267252585e-01
5.114481969089867963e-01,9.034482758371462641e-01
5.117344018317114829e-01,8.979310344579880532e-01
5.120206067544361694e-01,-8.648275861830392319e-01
5.123068116771608560e-01,-8.648275861830392319e-01
5.125930165998854315e-01,-8.565517241143020266e-01
5.128792215226101181e-01,-8.455172413559857159e-01
5.131654264453348047e-01,-8.399999999768276160e-01
5.134516313680594912e-01,-8.289655172185113052e-01
5.137378362907841778e-01,-8.179310344601949945e-01
5.140240412135088643e-01,-8.124137930810368946e-01
5.143102461362335509e-01,-8.013793103227205838e-01
5.145964510589581264e-01,-7.958620689435623730e-01
5.148826559816828130e-01,-7.875862068748251676e-01
5.151688609044074996e-01,-7.765517241165088569e-01
5.154550658271321861e-01,-7.710344827373507570e-01
5.157412707498568727e-01,-7.655172413581926572e-01
5.160274756725815593e-01,-7.599999999790344463e-01
5.163136805953062458e-01,-7.572413792894553408e-01
5.165998855180308214e-01,-7.517241379102972409e-01
5.168860904407555079e-01,-7.517241379102972409e-01
5.171722953634801945e-01,-7.489655172207181355e-01
5.174585002862048810e-01,-7.489655172207181355e-01
5.177447052089295676e-01,-7.462068965311391411e-01
5.180309101316542542e-01,-7.462068965311391411e-01
5.183171150543789407e-01,-7.434482758415600356e-01
5.186033199771035163e-01,-7.434482758415600356e-01
5.188895248998282028e-01,-7.406896551519809302e-01
5.191757298225528894e-01,-7.406896551519809302e-01
5.194619347452775759e-01,-7.379310344624019358e-01
5.197481396680022625e-01,-7.379310344624019358e-01
5.200343445907269491e-01,-7.351724137728228303e-01
5.203205495134516356e-01,-7.324137930832437249e-01
5.206067544361762112e-01,-7.296551723936646194e-01
5.208929593589008977e-01,-7.296551723936646194e-01
5.211791642816255843e-01,-7.268965517040856250e-01
5.214653692043502708e-01,-7.241379310145065196e-01
5.217515741270749574e-01,-7.241379310145065196e-01
5.220377790497996440e-01,-7.213793103249274141e-01
5.223239839725243305e-01,-7.213793103249274141e-01
5.226101888952489061e-01,-7.186206896353484197e-01
5.228963938179735926e-01,-7.186206896353484197e-01
5.231825987406982792e-01,-7.158620689457693143e-01
5.234688036634229658e-01,-7.131034482561902088e-01
5.237550085861476523e-01,-7.131034482561902088e-01
5.240412135088723389e-01,-7.103448275666112144e-01
5.243274184315970254e-01,-7.075862068770321089e-01
5.246136233543216010e-01,-7.048275861874530035e-01
5.248998282770462875e-01,-7.048275861874530035e-01
5.251860331997709741e-01,-7.020689654978738981e-01
5.254722381224956607e-01,-7.020689654978738981e-01
5.257584430452203472e-01,-6.993103448082949036e-01
5.260446479679450338e-01,-6.965517241187157982e-01
5.263308528906697203e-01,-6.937931034291366927e-01
5.266170578133942959e-01,-6.910344827395576983e-01
5.269032627361189824e-01,-6.910344827395576983e-01
5.271894676588436690e-01,-6.882758620499785929e-01
5.274756725815683556e-01,-6.855172413603994874e-01
5.277618775042930421e-01,-6.855172413603994874e-01
5.280480824270177287e-01,-6.827586206708203820e-01
5.283342873497424153e-01,-6.799999999812413876e-01
5.286204922724669908e-01,-6.772413792916622821e-01
5.289066971951916774e-01,-6.744827586020831767e-01
5.291929021179163639e-01,-6.717241379125041822e-01
5.294791070406410505e-01,-6.689655172229250768e-01
5.297653119633657370e-01,-6.689655172229250768e-01
5.300515168860904236e-01,-6.662068965333459714e-01
5.303377218088151102e-01,-6.634482758437669769e-01
5.306239267315396857e-01,-6.606896551541878715e-01
5.309101316542643723e-01,-6.579310344646087660e-01
5.311963365769890588e-01,-6.551724137750296606e-01
5.314825414997137454e-01,-6.551724137750296606e-01
5.317687464224384319e-01,-6.524137930854506662e-01
5.320549513451631185e-01,-6.496551723958715607e-01
5.323411562678878051e-01,-6.468965517062924553e-01
5.326273611906123806e-01,-6.441379310167134609e-01
5.329135661133370672e-01,-6.413793103271343554e-01
5.331997710360617537e-01,-6.386206896375552500e-01
5.334859759587864403e-01,-6.358620689479762556e-01
5.337721808815111268e-01,-6.331034482583971501e-01
5.340583858042358134e-01,-6.303448275688180447e-01
5.343445907269605000e-01,-6.248275861896599448e-01
5.346307956496850755e-01,-6.220689655000808393e-01
5.349170005724097621e-01,-6.193103448105017339e-01
5.352032054951344486e-01,-6.165517241209227395e-01
5.354894104178591352e-01,-6.137931034313436340e-01
5.357756153405838218e-01,-6.110344827417645286e-01
5.360618202633085083e-01,-6.082758620521855342e-01
5.363480251860331949e-01,-6.055172413626064287e-01
5.366342301087577704e-01,-6.027586206730273233e-01
5.369204350314824570e-01,-5.999999999834482178e-01
5.372066399542071435e-01,-5.972413792938692234e-01
5.374928448769318301e-01,-5.944827586042901180e-01
5.377790497996565167e-01,-5.917241379147110125e-01
5.380652547223812032e-01,-5.889655172251320181e-01
5.383514596451058898e-01,-5.862068965355529127e-01
5.386376645678305763e-01,-5.834482758459738072e-01
5.389238694905551519e-01,-5.806896551563947018e-01
5.392100744132798384e-01,-5.751724137772366019e-01
5.394962793360045250e-01,-5.724137930876574965e-01
5.397824842587292116e-01,-5.696551723980785020e-01
5.400686891814538981e-01,-5.668965517084993966e-01
5.403548941041785847e-01,-5.641379310189202911e-01
5.406410990269032713e-01,-5.586206896397621913e-01
5.409273039496278468e-01,-5.558620689501830858e-01
5.412135088723525334e-01,-5.531034482606039804e-01
5.414997137950772199e-01,-5.503448275710249860e-01
5.417859187178019065e-01,-5.448275861918667751e-01
5.420721236405265930e-01,-5.420689655022877806e-01
5.423583285632512796e-01,-5.393103448127086752e-01
5.426445334859759662e-01,-5.337931034335505753e-01
5.429307384087005417e-01,-5.310344827439714699e-01
5.432169433314252283e-01,-5.255172413648132590e-01
5.435031482541499148e-01,-5.227586206752342646e-01
5.437893531768746014e-01,-5.172413792960760537e-01
5.440755580995992879e-01,-5.144827586064970593e-01
5.443617630223239745e-01,-5.089655172273388484e-01
5.446479679450486611e-01,-5.062068965377598539e-01
5.449341728677732366e-01,-5.006896551586016431e-01
5.452203777904979232e-01,-4.979310344690225931e-01
5.455065827132226097e-01,-4.924137930898644377e-01
5.457927876359472963e-01,-4.896551724002853878e-01
5.460789925586719828e-01,-4.841379310211272324e-01
5.463651974813966694e-01,-4.813793103315481270e-01
5.466514024041213560e-01,-4.758620689523900271e-01
5.469376073268459315e-01,-4.703448275732318717e-01
5.472238122495706181e-01,-4.675862068836527663e-01
5.475100171722953046e-01,-4.620689655044946664e-01
5.477962220950199912e-01,-4.565517241253365111e-01
5.480824270177446778e-01,-4.537931034357574056e-01
5.483686319404693643e-01,-4.510344827461783557e-01
5.486548368631940509e-01,-4.455172413670202003e-01
5.489410417859186264e-01,-4.399999999878620449e-01
5.492272467086433130e-01,-4.344827586087038895e-01
5.495134516313679995e-01,-4.289655172295457897e-01
5.497996565540926861e-01,-4.234482758503876343e-01
5.500858614768173727e-01,-4.179310344712294789e-01
5.503720663995420592e-01,-4.124137930920713235e-01
5.506582713222667458e-01,-4.068965517129131682e-01
5.509444762449913213e-01,-4.013793103337550683e-01
5.512306811677160079e-01,-3.986206896441759628e-01
5.515168860904406944e-01,-3.958620689545969129e-01
5.518030910131653810e-01,-3.931034482650178075e-01
5.520892959358900676e-01,-3.903448275754387575e-01
5.523755008586147541e-01,-3.875862068858597076e-01
5.526617057813394407e-01,-3.875862068858597076e-01
5.529479107040640162e-01,-3.875862068858597076e-01
5.532341156267887028e-01,-3.875862068858597076e-01
5.535203205495133894e-01,-3.875862068858597076e-01
5.538065254722380759e-01,-3.875862068858597076e-01
5.540927303949627625e-01,-3.875862068858597076e-01
5.543789353176874490e-01,-3.875862068858597076e-01
5.546651402404121356e-01,-3.875862068858597076e-01
5.549513451631367111e-01,-3.875862068858597076e-01
5.552375500858613977e-01,-3.875862068858597076e-01
5.555237550085860843e-01,-3.875862068858597076e-01
5.558099599313107708e-01,-3.903448275754387575e-01
5.560961648540354574e-01,-3.903448275754387575e-01
5.563823697767601439e-01,-3.931034482650178075e-01
5.566685746994848305e-01,-3.931034482650178075e-01
5.569547796222094060e-01,-3.931034482650178075e-01
5.572409845449340926e-01,-3.931034482650178075e-01
5.575271894676587792e-01,-3.958620689545969129e-01
5.578133943903834657e-01,-3.958620689545969129e-01
5.580995993131081523e-01,-3.958620689545969129e-01
5.583858042358328388e-01,-3.986206896441759628e-01
5.586720091585575254e-01,-4.013793103337550683e-01
5.589582140812821009e-01,-4.013793103337550683e-01
5.592444190040067875e-01,-4.013793103337550683e-01
5.595306239267314741e-01,-4.041379310233341182e-01
5.598168288494561606e-01,-4.068965517129131682e-01
5.601030337721808472e-01,-4.068965517129131682e-01
5.603892386949055338e-01,-4.096551724024922736e-01
5.606754436176302203e-01,-4.096551724024922736e-01
5.609616485403547959e-01,-4.124137930920713235e-01
5.612478534630794824e-01,-4.124137930920713235e-01
5.615340583858041690e-01,-4.151724137816504290e-01
5.618202633085288555e-01,-4.179310344712294789e-01
5.621064682312535421e-01,-4.206896551608085288e-01
5.623926731539782287e-01,-4.234482758503876343e-01
5.626788780767029152e-01,-4.262068965399666842e-01
5.629650829994274908e-01,-4.289655172295457897e-01
5.632512879221521773e-01,-4.317241379191248396e-01
5.635374928448768639e-01,-4.344827586087038895e-01
5.638236977676015504e-01,-4.372413792982829950e-01
5.641099026903262370e-01,-4.399999999878620449e-01
5.643961076130509236e-01,-4.427586206774411504e-01
5.646823125357756101e-01,-4.455172413670202003e-01
5.649685174585001857e-01,-4.482758620565992502e-01
5.652547223812248722e-01,-4.537931034357574056e-01
5.655409273039495588e-01,-4.565517241253365111e-01
5.658271322266742454e-01,-4.593103448149155610e-01
5.661133371493989319e-01,-4.648275861940737164e-01
5.663995420721236185e-01,-4.675862068836527663e-01
5.666857469948483050e-01,-4.731034482628109217e-01
5.669719519175728806e-01,-4.758620689523900271e-01
5.672581568402975671e-01,-4.786206896419690771e-01
5.675443617630222537e-01,-4.841379310211272324e-01
5.678305666857469403e-01,-4.868965517107062824e-01
5.681167716084716268e-01,-4.924137930898644377e-01
5.684029765311963134e-01,-4.979310344690225931e-01
5.686891814539209999e-01,-5.034482758481807485e-01
5.689753863766455755e-01,-5.062068965377598539e-01
5.692615912993702620e-01,-5.117241379169179538e-01
5.695477962220949486e-01,-5.172413792960760537e-01
5.698340011448196352e-01,-5.255172413648132590e-01
5.701202060675443217e-01,-5.310344827439714699e-01
5.704064109902690083e-01,-5.365517241231295698e-01
5.706926159129936948e-01,-5.420689655022877806e-01
5.709788208357183814e-01,-5.475862068814458805e-01
5.712650257584429569e-01,-5.586206896397621913e-01
5.715512306811676435e-01,-5.641379310189202911e-01
5.718374356038923301e-01,-5.724137930876574965e-01
5.721236405266170166e-01,-5.779310344668157073e-01
5.724098454493417032e-01,-5.862068965355529127e-01
5.726960503720663898e-01,-5.944827586042901180e-01
5.729822552947910763e-01,-5.999999999834482178e-01
5.732684602175156519e-01,-6.055172413626064287e-01
5.735546651402403384e-01,-6.110344827417645286e-01
5.738408700629650250e-01,-6.137931034313436340e-01
5.741270749856897115e-01,-6.193103448105017339e-01
5.744132799084143981e-01,-6.248275861896599448e-01
5.746994848311390847e-01,-6.303448275688180447e-01
5.749856897538637712e-01,-6.358620689479762556e-01
5.752718946765883468e-01,-6.386206896375552500e-01
5.755580995993130333e-01,-6.441379310167134609e-01
5.758443045220377199e-01,-6.468965517062924553e-01
5.761305094447624064e-01,-6.524137930854506662e-01
5.764167143674870930e-01,-6.551724137750296606e-01
5.767029192902117796e-01,-6.579310344646087660e-01
5.769891242129364661e-01,-6.606896551541878715e-01
5.772753291356610417e-01,-6.634482758437669769e-01
5.775615340583857282e-01,-6.662068965333459714e-01
5.778477389811104148e-01,-6.689655172229250768e-01
5.781339439038351014e-01,-6.717241379125041822e-01
5.784201488265597879e-01,-6.744827586020831767e-01
5.787063537492844745e-01,-6.772413792916622821e-01
5.789925586720091610e-01,-6.799999999812413876e-01
5.792787635947337366e-01,-6.855172413603994874e-01
5.795649685174584231e-01,-6.882758620499785929e-01
5.798511734401831097e-01,-6.882758620499785929e-01
5.801373783629077963e-01,-6.910344827395576983e-01
5.804235832856324828e-01,-6.937931034291366927e-01
5.807097882083571694e-01,-6.965517241187157982e-01
5.809959931310818559e-01,-6.965517241187157982e-01
5.812821980538064315e-01,-6.993103448082949036e-01
5.815684029765311180e-01,-7.020689654978738981e-01
5.818546078992558046e-01,-7.020689654978738981e-01
5.821408128219804912e-01,-7.048275861874530035e-01
5.824270177447051777e-01,-7.075862068770321089e-01
5.827132226674298643e-01,-7.103448275666112144e-01
5.829994275901545508e-01,-7.103448275666112144e-01
5.832856325128791264e-01,-7.131034482561902088e-01
5.835718374356038129e-01,-7.158620689457693143e-01
5.838580423583284995e-01,-7.158620689457693143e-01
5.841442472810531861e-01,-7.186206896353484197e-01
5.844304522037778726e-01,-7.186206896353484197e-01
5.847166571265025592e-01,-7.186206896353484197e-01
5.850028620492272458e-01,-7.213793103249274141e-01
5.852890669719518213e-01,-7.213793103249274141e-01
5.855752718946765079e-01,-7.241379310145065196e-01
5.858614768174011944e-01,-7.241379310145065196e-01
5.861476817401258810e-01,-7.241379310145065196e-01
5.864338866628505675e-01,-7.268965517040856250e-01
5.867200915855752541e-01,-7.268965517040856250e-01
5.870062965082999407e-01,-7.268965517040856250e-01
5.872925014310245162e-01,-7.296551723936646194e-01
5.875787063537492028e-01,-7.296551723936646194e-01
5.878649112764738893e-01,-7.296551723936646194e-01
5.881511161991985759e-01,-7.296551723936646194e-01
5.884373211219232624e-01,-7.296551723936646194e-01
5.887235260446479490e-01,-7.296551723936646194e-01
5.890097309673726356e-01,-7.324137930832437249e-01
5.892959358900972111e-01,-7.324137930832437249e-01
5.895821408128218977e-01,-7.324137930832437249e-01
5.898683457355465842e-01,-7.324137930832437249e-01
5.901545506582712708e-01,-7.324137930832437249e-01
5.904407555809959574e-01,-7.324137930832437249e-01
5.907269605037206439e-01,-7.324137930832437249e-01
5.910131654264453305e-01,-7.324137930832437249e-01
5.912993703491699060e-01,-7.324137930832437249e-01
5.915855752718945926e-01,-7.324137930832437249e-01
5.918717801946192791e-01,-7.324137930832437249e-01
5.921579851173439657e-01,-7.324137930832437249e-01
5.924441900400686523e-01,-7.324137930832437249e-01
5.927303949627933388e-01,-7.296551723936646194e-01
5.930165998855180254e-01,-7.296551723936646194e-01
5.933028048082426009e-01,-7.296551723936646194e-01
5.935890097309672875e-01,-7.296551723936646194e-01
5.938752146536919740e-01,-7.296551723936646194e-01
5.941614195764166606e-01,-7.268965517040856250e-01
5.944476244991413472e-01,-7.268965517040856250e-01
5.947338294218660337e-01,-7.241379310145065196e-01
5.950200343445907203e-01,-7.241379310145065196e-01
5.953062392673152958e-01,-7.213793103249274141e-01
5.955924441900399824e-01,-7.213793103249274141e-01
5.958786491127646689e-01,-7.186206896353484197e-01
5.961648540354893555e-01,-7.186206896353484197e-01
5.964510589582140421e-01,-7.158620689457693143e-01
5.967372638809387286e-01,-7.158620689457693143e-01
5.970234688036634152e-01,-7.131034482561902088e-01
5.973096737263879907e-01,-7.103448275666112144e-01
5.975958786491126773e-01,-7.075862068770321089e-01
5.978820835718373639e-01,-7.048275861874530035e-01
5.981682884945620504e-01,-7.020689654978738981e-01
5.984544934172867370e-01,-6.993103448082949036e-01
5.987406983400114235e-01,-6.965517241187157982e-01
5.990269032627361101e-01,-6.937931034291366927e-01
5.993131081854606856e-01,-6.910344827395576983e-01
5.995993131081853722e-01,-6.855172413603994874e-01
5.998855180309100588e-01,-6.799999999812413876e-01
6.001717229536347453e-01,-6.772413792916622821e-01
6.004579278763594319e-01,-6.717241379125041822e-01
6.007441327990841184e-01,-6.689655172229250768e-01
6.010303377218088050e-01,-6.662068965333459714e-01
6.013165426445333805e-01,-6.606896551541878715e-01
6.016027475672580671e-01,-6.579310344646087660e-01
6.018889524899827537e-01,-6.551724137750296606e-01
6.021751574127074402e-01,-6.496551723958715607e-01
6.024613623354321268e-01,-6.441379310167134609e-01
6.027475672581568134e-01,-6.413793103271343554e-01
6.030337721808814999e-01,-6.386206896375552500e-01
6.033199771036061865e-01,-6.358620689479762556e-01
6.036061820263307620e-01,-6.331034482583971501e-01
6.038923869490554486e-01,-6.303448275688180447e-01
6.041785918717801351e-01,-6.275862068792389392e-01
6.044647967945048217e-01,-6.248275861896599448e-01
6.047510017172295083e-01,-6.220689655000808393e-01
6.050372066399541948e-01,-6.165517241209227395e-01
6.053234115626788814e-01,-6.137931034313436340e-01
6.056096164854034569e-01,-6.110344827417645286e-01
6.058958214081281435e-01,-6.082758620521855342e-01
6.061820263308528300e-01,-6.055172413626064287e-01
6.064682312535775166e-01,-6.027586206730273233e-01
6.067544361763022032e-01,-5.999999999834482178e-01
6.070406410990268897e-01,-5.972413792938692234e-01
6.073268460217515763e-01,-5.944827586042901180e-01
6.076130509444761518e-01,-5.917241379147110125e-01
6.078992558672008384e-01,-5.889655172251320181e-01
6.081854607899255249e-01,-5.862068965355529127e-01
6.084716657126502115e-01,-5.834482758459738072e-01
6.087578706353748981e-01,-5.806896551563947018e-01
6.090440755580995846e-01,-5.779310344668157073e-01
6.093302804808242712e-01,-5.779310344668157073e-01
6.096164854035488467e-01,-5.751724137772366019e-01
6.099026903262735333e-01,-5.724137930876574965e-01
6.101888952489982199e-01,-5.724137930876574965e-01
6.104751001717229064e-01,-5.696551723980785020e-01
6.107613050944475930e-01,-5.668965517084993966e-01
6.110475100171722795e-01,-5.641379310189202911e-01
6.113337149398969661e-01,-5.641379310189202911e-01
6.116199198626215416e-01,-5.613793103293412967e-01
6.119061247853462282e-01,-5.586206896397621913e-01
6.121923297080709148e-01,-5.586206896397621913e-01
6.124785346307956013e-01,-5.558620689501830858e-01
6.127647395535202879e-01,-5.531034482606039804e-01
6.130509444762449744e-01,-5.503448275710249860e-01
6.133371493989696610e-01,-5.503448275710249860e-01
6.136233543216942365e-01,-5.475862068814458805e-01
6.139095592444189231e-01,-5.448275861918667751e-01
6.141957641671436097e-01,-5.448275861918667751e-01
6.144819690898682962e-01,-5.448275861918667751e-01
6.147681740125929828e-01,-5.420689655022877806e-01
6.150543789353176694e-01,-5.420689655022877806e-01
6.153405838580423559e-01,-5.393103448127086752e-01
6.156267887807669315e-01,-5.393103448127086752e-01
6.159129937034916180e-01,-5.365517241231295698e-01
6.161991986262163046e-01,-5.337931034335505753e-01
6.164854035489409911e-01,-5.337931034335505753e-01
6.167716084716656777e-01,-5.337931034335505753e-01
6.170578133943903643e-01,-5.310344827439714699e-01
6.173440183171150508e-01,-5.282758620543923644e-01
6.176302232398396264e-01,-5.282758620543923644e-01
6.179164281625643129e-01,-5.282758620543923644e-01
6.182026330852889995e-01,-5.282758620543923644e-01
6.184888380080136860e-01,-5.255172413648132590e-01
6.187750429307383726e-01,-5.255172413648132590e-01
6.190612478534630592e-01,-5.227586206752342646e-01
6.193474527761877457e-01,-5.227586206752342646e-01
6.196336576989123213e-01,-5.227586206752342646e-01
6.199198626216370078e-01,-5.227586206752342646e-01
6.202060675443616944e-01,-5.199999999856551591e-01
6.204922724670863809e-01,-5.199999999856551591e-01
6.207784773898110675e-01,-5.199999999856551591e-01
6.210646823125357541e-01,-5.199999999856551591e-01
6.213508872352604406e-01,-5.199999999856551591e-01
6.216370921579850162e-01,-5.172413792960760537e-01
6.219232970807097027e-01,-5.172413792960760537e-01
6.222095020034343893e-01,-5.172413792960760537e-01
6.224957069261590759e-01,-5.172413792960760537e-01
6.227819118488837624e-01,-5.172413792960760537e-01
6.230681167716084490e-01,-5.172413792960760537e-01
6.233543216943331355e-01,-5.172413792960760537e-01
6.236405266170577111e-01,-5.172413792960760537e-01
6.239267315397823976e-01,-5.172413792960760537e-01
6.242129364625070842e-01,-5.172413792960760537e-01
6.244991413852317708e-01,-5.172413792960760537e-01
6.247853463079564573e-01,-5.172413792960760537e-01
6.250715512306811439e-01,-5.172413792960760537e-01
6.253577561534058304e-01,-5.172413792960760537e-01
6.256439610761304060e-01,-5.172413792960760537e-01
6.259301659988550925e-01,-5.172413792960760537e-01
6.262163709215797791e-01,-5.172413792960760537e-01
6.265025758443044657e-01,-5.172413792960760537e-01
6.267887807670291522e-01,-5.172413792960760537e-01
6.270749856897538388e-01,-5.172413792960760537e-01
6.273611906124785254e-01,-5.172413792960760537e-01
6.276473955352031009e-01,-5.172413792960760537e-01
6.279336004579277875e-01,-5.172413792960760537e-01
6.282198053806524740e-01,-5.172413792960760537e-01
6.285060103033771606e-01,-5.172413792960760537e-01
6.287922152261018471e-01,-5.172413792960760537e-01
6.290784201488265337e-01,-5.172413792960760537e-01
6.293646250715512203e-01,-5.172413792960760537e-01
6.296508299942757958e-01,-5.172413792960760537e-01
6.299370349170004824e-01,-5.172413792960760537e-01
6.302232398397251689e-01,-5.172413792960760537e-01
6.305094447624498555e-01,-5.172413792960760537e-01
6.307956496851745420e-01,-5.172413792960760537e-01
6.310818546078992286e-01,-5.172413792960760537e-01
6.313680595306239152e-01,-5.172413792960760537e-01
6.316542644533484907e-01,-5.172413792960760537e-01
6.319404693760731773e-01,-5.172413792960760537e-01
6.322266742987978638e-01,-5.172413792960760537e-01
6.325128792215225504e-01,-5.172413792960760537e-01
6.327990841442472369e-01,-5.172413792960760537e-01
6.330852890669719235e-01,-5.172413792960760537e-01
6.333714939896966101e-01,-5.172413792960760537e-01
6.336576989124211856e-01,-5.172413792960760537e-01
6.339439038351458722e-01,-5.172413792960760537e-01
6.342301087578705587e-01,-5.172413792960760537e-01
6.345163136805952453e-01,-5.172413792960760537e-01
6.348025186033199319e-01,-5.172413792960760537e-01
6.350887235260446184e-01,-5.172413792960760537e-01
6.353749284487693050e-01,-5.172413792960760537e-01
6.356611333714939915e-01,-5.172413792960760537e-01
6.359473382942185671e-01,-5.172413792960760537e-01
6.362335432169432536e-01,-5.172413792960760537e-01
6.365197481396679402e-01,-5.172413792960760537e-01
6.368059530623926268e-01,-5.172413792960760537e-01
6.370921579851173133e-01,-5.172413792960760537e-01
6.373783629078419999e-01,-5.172413792960760537e-01
6.376645678305666864e-01,-5.172413792960760537e-01
6.379507727532912620e-01,-5.172413792960760537e-01
6.382369776760159485e-01,-5.172413792960760537e-01
6.385231825987406351e-01,-5.172413792960760537e-01
6.388093875214653217e-01,-5.172413792960760537e-01
6.390955924441900082e-01,-5.172413792960760537e-01
6.393817973669146948e-01,-5.172413792960760537e-01
6.396680022896393814e-01,-5.172413792960760537e-01
6.399542072123639569e-01,-5.172413792960760537e-01
6.402404121350886435e-01,-5.172413792960760537e-01
6.405266170578133300e-01,-5.172413792960760537e-01
6.408128219805380166e-01,-5.172413792960760537e-01
6.410990269032627031e-01,-5.172413792960760537e-01
6.413852318259873897e-01,-5.172413792960760537e-01
6.416714367487120763e-01,-5.172413792960760537e-01
6.419576416714366518e-01,-5.172413792960760537e-01
6.422438465941613384e-01,-5.172413792960760537e-01
6.425300515168860249e-01,-5.172413792960760537e-01
6.428162564396107115e-01,-5.172413792960760537e-01
6.431024613623353980e-01,-5.144827586064970593e-01
6.433886662850600846e-01,-5.144827586064970593e-01
6.436748712077847712e-01,-5.144827586064970593e-01
6.439610761305093467e-01,-5.117241379169179538e-01
6.442472810532340333e-01,-5.089655172273388484e-01
6.445334859759587198e-01,-5.034482758481807485e-01
6.448196908986834064e-01,-4.979310344690225931e-01
6.451058958214080929e-01,-4.924137930898644377e-01
6.453921007441327795e-01,-4.896551724002853878e-01
6.456783056668574661e-01,-4.841379310211272324e-01
6.459645105895820416e-01,-4.786206896419690771e-01
6.462507155123067282e-01,-4.731034482628109217e-01
6.465369204350314147e-01,-4.703448275732318717e-01
6.468231253577561013e-01,-4.648275861940737164e-01
6.471093302804807879e-01,-4.593103448149155610e-01
6.473955352032054744e-01,-4.537931034357574056e-01
6.476817401259301610e-01,-4.510344827461783557e-01
6.479679450486547365e-01,-4.455172413670202003e-01
6.482541499713794231e-01,-4.399999999878620449e-01
6.485403548941041096e-01,-4.372413792982829950e-01
6.488265598168287962e-01,-4.317241379191248396e-01
6.491127647395534828e-01,-4.262068965399666842e-01
6.493989696622781693e-01,-4.206896551608085288e-01
6.496851745850028559e-01,-4.151724137816504290e-01
6.499713795077274314e-01,-4.124137930920713235e-01
6.502575844304521180e-01,-4.068965517129131682e-01
6.505437893531768045e-01,-4.013793103337550683e-01
6.508299942759014911e-01,-3.986206896441759628e-01
6.511161991986261777e-01,-3.931034482650178075e-01
6.514024041213508642e-01,-3.903448275754387575e-01
6.516886090440755508e-01,-3.875862068858597076e-01
6.519748139668001263e-01,-3.848275861962806021e-01
6.522610188895248129e-01,-3.820689655067015522e-01
6.525472238122494995e-01,-3.793103448171224468e-01
6.528334287349741860e-01,-3.765517241275433968e-01
6.531196336576988726e-01,-3.765517241275433968e-01
6.534058385804235591e-01,-3.737931034379643469e-01
6.536920435031482457e-01,-3.737931034379643469e-01
6.539782484258728212e-01,-3.710344827483852415e-01
6.542644533485975078e-01,-3.710344827483852415e-01
6.545506582713221944e-01,-3.710344827483852415e-01
6.548368631940468809e-01,-3.710344827483852415e-01
6.551230681167715675e-01,-3.710344827483852415e-01
6.554092730394962540e-01,-3.710344827483852415e-01
6.556954779622209406e-01,-3.710344827483852415e-01
6.559816828849455161e-01,-3.710344827483852415e-01
6.562678878076702027e-01,-3.710344827483852415e-01
6.565540927303948893e-01,-3.710344827483852415e-01
6.568402976531195758e-01,-3.710344827483852415e-01
6.571265025758442624e-01,-3.710344827483852415e-01
6.574127074985689489e-01,-3.737931034379643469e-01
6.576989124212936355e-01,-3.737931034379643469e-01
6.579851173440182110e-01,-3.737931034379643469e-01
6.582713222667428976e-01,-3.765517241275433968e-01
6.585575271894675842e-01,-3.765517241275433968e-01
6.588437321121922707e-01,-3.793103448171224468e-01
6.591299370349169573e-01,-3.820689655067015522e-01
6.594161419576416439e-01,-3.848275861962806021e-01
6.597023468803663304e-01,-3.875862068858597076e-01
6.599885518030909060e-01,-3.903448275754387575e-01
6.602747567258155925e-01,-3.958620689545969129e-01
6.605609616485402791e-01,-3.986206896441759628e-01
6.608471665712649656e-01,-4.041379310233341182e-01
6.611333714939896522e-01,-4.096551724024922736e-01
6.614195764167143388e-01,-4.179310344712294789e-01
6.617057813394390253e-01,-4.206896551608085288e-01
6.619919862621636009e-01,-4.262068965399666842e-01
6.622781911848882874e-01,-4.317241379191248396e-01
6.625643961076129740e-01,-4.372413792982829950e-01
6.628506010303376605e-01,-4.399999999878620449e-01
6.631368059530623471e-01,-4.455172413670202003e-01
6.634230108757870337e-01,-4.510344827461783557e-01
6.637092157985117202e-01,-4.565517241253365111e-01
6.639954207212362958e-01,-4.620689655044946664e-01
6.642816256439609823e-01,-4.648275861940737164e-01
6.645678305666856689e-01,-4.731034482628109217e-01
6.648540354894103555e-01,-4.758620689523900271e-01
6.651402404121350420e-01,-4.813793103315481270e-01
6.654264453348597286e-01,-4.868965517107062824e-01
6.657126502575844151e-01,-4.924137930898644377e-01
6.659988551803089907e-01,-4.951724137794434877e-01
6.662850601030336772e-01,-5.006896551586016431e-01
6.665712650257583638e-01,-5.089655172273388484e-01
6.668574699484830504e-01,-5.117241379169179538e-01
6.671436748712077369e-01,-5.144827586064970593e-01
6.674298797939324235e-01,-5.144827586064970593e-01
6.677160847166571100e-01,-5.144827586064970593e-01
6.680022896393817966e-01,-5.172413792960760537e-01
6.682884945621063721e-01,-5.172413792960760537e-01
6.685746994848310587e-01,-5.172413792960760537e-01
6.688609044075557453e-01,-5.172413792960760537e-01
6.691471093302804318e-01,-5.172413792960760537e-01
6.694333142530051184e-01,-5.172413792960760537e-01
6.697195191757298049e-01,-5.172413792960760537e-01
6.700057240984544915e-01,-5.172413792960760537e-01
6.702919290211790670e-01,-5.172413792960760537e-01
6.705781339439037536e-01,-5.172413792960760537e-01
6.708643388666284402e-01,-5.172413792960760537e-01
6.711505437893531267e-01,-5.172413792960760537e-01
6.714367487120778133e-01,-5.172413792960760537e-01
6.717229536348024999e-01,-5.172413792960760537e-01
6.720091585575271864e-01,-5.172413792960760537e-01
6.722953634802517620e-01,-5.172413792960760537e-01
6.725815684029764485e-01,-5.172413792960760537e-01
6.728677733257011351e-01,-5.172413792960760537e-01
6.731539782484258216e-01,-5.172413792960760537e-01
6.734401831711505082e-01,-5.172413792960760537e-01
